"PointID","x","y","Density","Momentum_x","Momentum_y","Energy","Nu_Tilde"
0, 5.010000078023450e+02, 5.352202629500000e-08, 1.757980989136571e-04, 1.740086845540294e-02, 5.291173658322367e-03, 3.788305212251542e+01, 3.084826234114680e-01
1, 4.052709646366250e+02, 5.352202629500000e-08, 1.760646674499619e-04, 1.733734590259274e-02, 5.299228451044508e-03, 3.795325480762464e+01, 3.088139180588004e-01
2, 3.278693397908290e+02, 5.352202629500000e-08, 1.760756135444860e-04, 1.733369195866626e-02, 5.299539107741611e-03, 3.795653019029287e+01, 3.088301451887733e-01
3, 2.652863312215480e+02, 5.352202629500000e-08, 1.760756028589455e-04, 1.733399292064596e-02, 5.299553463699725e-03, 3.795641518356969e+01, 3.088299543297981e-01
4, 2.146849004455700e+02, 5.352202629500000e-08, 1.760756318844450e-04, 1.733405990790349e-02, 5.299645622335247e-03, 3.795642130226097e+01, 3.088274661085260e-01
5, 1.737711627536290e+02, 5.352202629500000e-08, 1.760757565381876e-04, 1.733417357568857e-02, 5.300095696537770e-03, 3.795648323864449e+01, 3.088233983727302e-01
6, 1.406903998926780e+02, 5.352202629500000e-08, 1.760758083259641e-04, 1.733439827710363e-02, 5.301506018764827e-03, 3.795656218087388e+01, 3.088158629162798e-01
7, 1.139429812211730e+02, 5.352202629500000e-08, 1.760753482833445e-04, 1.733471871718418e-02, 5.304327129667449e-03, 3.795654363214110e+01, 3.088007236378795e-01
8, 9.231638184086459e+01, 5.352202629500000e-08, 1.760746639925290e-04, 1.733571489251853e-02, 5.308426847069211e-03, 3.795657144843321e+01, 3.087712113680347e-01
9, 7.483021592330550e+01, 5.352202629500000e-08, 1.760748095645053e-04, 1.733955040031577e-02, 5.314719072710814e-03, 3.795718439011485e+01, 3.087130341378299e-01
10, 6.069179345940150e+01, 5.352202629500000e-08, 1.760744295277601e-04, 1.735038311689950e-02, 5.324420202573068e-03, 3.795842980166809e+01, 3.085942690526906e-01
11, 4.926018571243980e+01, 5.352202629500000e-08, 1.760726478231177e-04, 1.737445960611088e-02, 5.330648352854257e-03, 3.796050145719956e+01, 3.083737689263569e-01
12, 4.001717037504760e+01, 5.352202629500000e-08, 1.760727642951158e-04, 1.740901721900038e-02, 5.316071310320286e-03, 3.796351351285053e+01, 3.080119324334081e-01
13, 3.254373930407910e+01, 5.352202629500000e-08, 1.760739417639538e-04, 1.742546947078489e-02, 5.272626831816826e-03, 3.796413430223679e+01, 3.075126276930465e-01
14, 2.650110387248250e+01, 5.352202629500000e-08, 1.760725281917027e-04, 1.740487094068744e-02, 5.234813386500847e-03, 3.796056290163719e+01, 3.068649897647539e-01
15, 2.161533686500620e+01, 5.352202629500000e-08, 1.760702885496383e-04, 1.738615744447917e-02, 5.238693291279979e-03, 3.795823623385090e+01, 3.061391979933114e-01
16, 1.766495469789320e+01, 5.352202629500000e-08, 1.760704676312322e-04, 1.739552487610365e-02, 5.241900235074119e-03, 3.795925941899120e+01, 3.052714177572913e-01
17, 1.447087703467990e+01, 5.352202629500000e-08, 1.760704960951273e-04, 1.740028566128186e-02, 5.226740171387623e-03, 3.795898310899751e+01, 3.042160321305565e-01
18, 1.188830864330480e+01, 5.352202629500000e-08, 1.760579553432610e-04, 1.741683046880737e-02, 5.226567071551885e-03, 3.795746602018308e+01, 3.028868053245019e-01
19, 9.800175479560719e+00, 5.352202629500000e-08, 1.760643780142849e-04, 1.744819327011924e-02, 5.193415515950559e-03, 3.796109320622932e+01, 3.011961447682726e-01
20, 8.111817438747661e+00, 5.352202629500000e-08, 1.760428656190111e-04, 1.743572271791658e-02, 5.146771104238273e-03, 3.795235122575352e+01, 2.989723049256114e-01
21, 6.746697185177710e+00, 5.352202629500000e-08, 1.760317984029256e-04, 1.742569250790040e-02, 5.132275271932507e-03, 3.794788049773098e+01, 2.962058323314015e-01
22, 5.642930530440520e+00, 5.352202629500000e-08, 1.760495918176055e-04, 1.747068765375876e-02, 5.107352256495058e-03, 3.795705068926542e+01, 2.926834438540775e-01
23, 4.750481074120650e+00, 5.352202629500000e-08, 1.760628694024302e-04, 1.748188021099290e-02, 5.035253648058708e-03, 3.795902160033762e+01, 2.882616492868855e-01
24, 4.028891933275240e+00, 5.352202629500000e-08, 1.760038614619453e-04, 1.740744646650026e-02, 5.012023328736937e-03, 3.793529303998813e+01, 2.830586358049206e-01
25, 3.445451734506840e+00, 5.352202629500000e-08, 1.759840798760503e-04, 1.744746578765424e-02, 5.132531162694214e-03, 3.793795845517823e+01, 2.782506367465659e-01
26, 2.973711728635770e+00, 5.352202629500000e-08, 1.758435250297415e-04, 1.769421745702609e-02, 5.023346402086853e-03, 3.793357241055104e+01, 2.743623558065911e-01
27, 2.592286805209170e+00, 5.352202629500000e-08, 1.762241330087572e-04, 1.723452909138673e-02, 4.173858404088225e-03, 3.796634403967315e+01, 2.712474686601047e-01
28, 2.283886053947150e+00, 5.352202629500000e-08, 1.761736308510640e-04, 1.571831803864266e-02, 5.018937819129027e-03, 3.781337089787740e+01, 2.583968651232538e-01
29, 2.034528926141940e+00, 5.352202629500000e-08, 1.756706112074992e-04, 1.677080591659086e-02, 7.843836069860423e-03, 3.789147652839863e+01, 2.478939797980797e-01
30, 1.832911462718730e+00, 5.352202629500000e-08, 1.746609863684881e-04, 2.003205419388655e-02, 7.742005352621521e-03, 3.799525254375842e+01, 2.704331854128803e-01
31, 1.669893858549960e+00, 5.352202629500000e-08, 1.734533303389768e-04, 2.117351645169845e-02, 3.731509762879003e-03, 3.785446914570942e+01, 3.652781563820955e-01
32, 1.538086133079550e+00, 5.352202629500000e-08, 1.758761740321710e-04, 1.570315410007166e-02, -2.386014614731172e-03, 3.806571715009851e+01, 4.808897753573214e-01
33, 1.431513124708660e+00, 5.352202629500000e-08, 1.771545436911285e-04, 9.475814103481143e-03, -6.491987574435583e-04, 3.776828759944602e+01, 3.964042896616641e-01
34, 1.345343622331700e+00, 5.352202629500000e-08, 1.775781700122214e-04, 1.076140150852885e-02, 5.928657937189208e-03, 3.786359560354644e+01, 2.208238368850532e-01
35, 1.275671354903060e+00, 5.352202629500000e-08, 1.755121546737026e-04, 1.177030207113514e-02, 8.915880682977684e-03, 3.752691612409178e+01, 1.683447380086565e-01
36, 1.219337910763940e+00, 5.352202629500000e-08, 1.737108256866989e-04, 1.313706230252364e-02, 1.070988117141948e-02, 3.723512755782952e+01, 1.578503550444058e-01
37, 1.173789559236190e+00, 5.352202629500000e-08, 1.712021074611085e-04, 1.438237973286415e-02, 1.185974227879507e-02, 3.679244639462292e+01, 1.509794628933823e-01
38, 1.136961483861060e+00, 5.352202629500000e-08, 1.684837088031344e-04, 1.552663888110642e-02, 1.204531488901752e-02, 3.629046551662770e+01, 1.447604492240479e-01
39, 1.107184179296940e+00, 5.352202629500000e-08, 1.659126509174553e-04, 1.613852404338552e-02, 1.103609570088242e-02, 3.576072861515625e+01, 1.383938598567764e-01
40, 1.083107768621840e+00, 5.352202629500000e-08, 1.641034019375267e-04, 1.582962627159986e-02, 9.098728959499786e-03, 3.532605494670832e+01, 1.317437880862589e-01
41, 1.063640810162010e+00, 5.352202629500000e-08, 1.631338429861848e-04, 1.447677956885218e-02, 6.814001572916723e-03, 3.501321680045668e+01, 1.237608871050649e-01
42, 1.047900819812490e+00, 5.352202629500000e-08, 1.628338912995967e-04, 1.247498249336812e-02, 4.803320271638226e-03, 3.482827283348967e+01, 1.129059841178189e-01
43, 1.035174265907630e+00, 5.352202629500000e-08, 1.628507785593604e-04, 1.036433057989095e-02, 3.308419338016647e-03, 3.473234323342795e+01, 9.879849796924051e-02
44, 1.024884223112370e+00, 5.352202629500000e-08, 1.629986987325844e-04, 8.411988903252241e-03, 2.243182172501113e-03, 3.469349504699630e+01, 8.256126757149414e-02
45, 1.016564219007590e+00, 5.352202629500000e-08, 1.630916636842020e-04, 6.625385170735893e-03, 1.457485451155877e-03, 3.466384211250203e+01, 6.552602693906369e-02
46, 1.009837087771990e+00, 5.352202629500000e-08, 1.632298124512198e-04, 4.864476090963737e-03, 8.825928008274759e-04, 3.465690446876943e+01, 4.812097016961586e-02
47, 1.004397872347220e+00, 5.352202629500000e-08, 1.625757179559061e-04, 3.188857986302815e-03, 3.977338673723885e-04, 3.449267253410292e+01, 2.956073371178115e-02
48, 1.000000000000000e+00, 5.352202629500000e-08, 1.626386147385753e-04, 0.000000000000000e+00, 0.000000000000000e+00, 3.448297558537795e+01, 0.000000000000000e+00
49, 9.957820729228830e-01, -5.967886532841323e-04, 1.633740866353408e-04, 0.000000000000000e+00, 0.000000000000000e+00, 3.470180862477999e+01, 0.000000000000000e+00
50, 9.909241437988340e-01, -1.280289614488857e-03, 1.634882964636778e-04, 0.000000000000000e+00, 0.000000000000000e+00, 3.474894263743253e+01, 0.000000000000000e+00
51, 9.853368952903420e-01, -2.061293361678059e-03, 1.638342256312786e-04, 0.000000000000000e+00, 0.000000000000000e+00, 3.483070938693346e+01, 0.000000000000000e+00
52, 9.789211302792580e-01, -2.951446198418808e-03, 1.641188596853855e-04, 0.000000000000000e+00, 0.000000000000000e+00, 3.489376441047833e+01, 0.000000000000000e+00
53, 9.715675460812661e-01, -3.963073044857662e-03, 1.645369772308644e-04, 0.000000000000000e+00, 0.000000000000000e+00, 3.498336510308569e+01, 0.000000000000000e+00
54, 9.631568360186920e-01, -5.108981458577545e-03, 1.649740390399801e-04, 0.000000000000000e+00, 0.000000000000000e+00, 3.507737390664176e+01, 0.000000000000000e+00
55, 9.535602429161220e-01, -6.402177880090121e-03, 1.654572175447481e-04, 0.000000000000000e+00, 0.000000000000000e+00, 3.518253638557148e+01, 0.000000000000000e+00
56, 9.426407105822270e-01, -7.855481327107042e-03, 1.659162328800394e-04, 0.000000000000000e+00, 0.000000000000000e+00, 3.528430122855858e+01, 0.000000000000000e+00
57, 9.302547962764830e-01, -9.481022247350132e-03, 1.663666331238394e-04, 0.000000000000000e+00, 0.000000000000000e+00, 3.538550654882403e+01, 0.000000000000000e+00
58, 9.162555145009680e-01, -1.128961886009035e-02, 1.667864324674408e-04, 0.000000000000000e+00, 0.000000000000000e+00, 3.548076902130396e+01, 0.000000000000000e+00
59, 9.004962734807360e-01, -1.329003047580013e-02, 1.672027556479463e-04, 0.000000000000000e+00, 0.000000000000000e+00, 3.557518381265730e+01, 0.000000000000000e+00
60, 8.828360320456839e-01, -1.548809659764239e-02, 1.676080990946200e-04, 0.000000000000000e+00, 0.000000000000000e+00, 3.566696422911177e+01, 0.000000000000000e+00
61, 8.631457374960591e-01, -1.788578165295289e-02, 1.680196799090256e-04, 0.000000000000000e+00, 0.000000000000000e+00, 3.575989106607148e+01, 0.000000000000000e+00
62, 8.413159970120960e-01, -2.048015683562499e-02, 1.684255253817715e-04, 0.000000000000000e+00, 0.000000000000000e+00, 3.585169102333784e+01, 0.000000000000000e+00
63, 8.172657826166300e-01, -2.326236201353585e-02, 1.688355059735777e-04, 0.000000000000000e+00, 0.000000000000000e+00, 3.594469360804914e+01, 0.000000000000000e+00
64, 7.909517772165610e-01, -2.621660130830753e-02, 1.692373255712574e-04, 0.000000000000000e+00, 0.000000000000000e+00, 3.603635733301756e+01, 0.000000000000000e+00
65, 7.623777524675190e-01, -2.931923744885270e-02, 1.696387631669884e-04, 0.000000000000000e+00, 0.000000000000000e+00, 3.612835308212554e+01, 0.000000000000000e+00
66, 7.316031585245610e-01, -3.253806414443636e-02, 1.700323292271464e-04, 0.000000000000000e+00, 0.000000000000000e+00, 3.621898190509310e+01, 0.000000000000000e+00
67, 6.987499446352849e-01, -3.583185629664898e-02, 1.704244406848043e-04, 0.000000000000000e+00, 0.000000000000000e+00, 3.630956181227216e+01, 0.000000000000000e+00
68, 6.640065698311099e-01, -3.915032464739417e-02, 1.708107430588775e-04, 0.000000000000000e+00, 0.000000000000000e+00, 3.639905360596944e+01, 0.000000000000000e+00
69, 6.276282525902900e-01, -4.243462858861940e-02, 1.711969489970101e-04, 0.000000000000000e+00, 0.000000000000000e+00, 3.648865874545616e+01, 0.000000000000000e+00
70, 5.899327756923080e-01, -4.561861289428874e-02, 1.715811186421194e-04, 0.000000000000000e+00, 0.000000000000000e+00, 3.657789634650157e+01, 0.000000000000000e+00
71, 5.512916003363530e-01, -4.863090808605761e-02, 1.719681123795794e-04, 0.000000000000000e+00, 0.000000000000000e+00, 3.666779825936042e+01, 0.000000000000000e+00
72, 5.121166001065770e-01, -5.139794887290158e-02, 1.723584711423843e-04, 0.000000000000000e+00, 0.000000000000000e+00, 3.675844454498576e+01, 0.000000000000000e+00
73, 4.728433082391680e-01, -5.384781416072871e-02, 1.727564665570788e-04, 0.000000000000000e+00, 0.000000000000000e+00, 3.685074003854273e+01, 0.000000000000000e+00
74, 4.339120676130220e-01, -5.591460064650605e-02, 1.731649725533001e-04, 0.000000000000000e+00, 0.000000000000000e+00, 3.694528719058189e+01, 0.000000000000000e+00
75, 3.957487779587870e-01, -5.754285488135374e-02, 1.735878565562776e-04, 0.000000000000000e+00, 0.000000000000000e+00, 3.704290482429572e+01, 0.000000000000000e+00
76, 3.587469844042950e-01, -5.869148183384367e-02, 1.740293214987514e-04, 0.000000000000000e+00, 0.000000000000000e+00, 3.714449785022088e+01, 0.000000000000000e+00
77, 3.232528390902350e-01, -5.933656107664884e-02, 1.744919386441143e-04, 0.000000000000000e+00, 0.000000000000000e+00, 3.725061684065636e+01, 0.000000000000000e+00
78, 2.895540445181870e-01, -5.947265120547269e-02, 1.749795859722109e-04, 0.000000000000000e+00, 0.000000000000000e+00, 3.736211543576835e+01, 0.000000000000000e+00
79, 2.578733448481230e-01, -5.911241796041434e-02, 1.754927911814308e-04, 0.000000000000000e+00, 0.000000000000000e+00, 3.747912526231129e+01, 0.000000000000000e+00
80, 2.283665749856950e-01, -5.828472232042683e-02, 1.760340391166199e-04, 0.000000000000000e+00, 0.000000000000000e+00, 3.760222287199398e+01, 0.000000000000000e+00
81, 2.011247989315330e-01, -5.703150512358030e-02, 1.766011631074011e-04, 0.000000000000000e+00, 0.000000000000000e+00, 3.773098556291990e+01, 0.000000000000000e+00
82, 1.761797307773510e-01, -5.540399685008031e-02, 1.771949938780509e-04, 0.000000000000000e+00, 0.000000000000000e+00, 3.786564382387054e+01, 0.000000000000000e+00
83, 1.535114573767690e-01, -5.345875993105773e-02, 1.778109004167483e-04, 0.000000000000000e+00, 0.000000000000000e+00, 3.800524152178039e+01, 0.000000000000000e+00
84, 1.330574640378200e-01, -5.125402533974487e-02, 1.784473189548175e-04, 0.000000000000000e+00, 0.000000000000000e+00, 3.814946791832374e+01, 0.000000000000000e+00
85, 1.147220644565820e-01, -4.884662296676224e-02, 1.790984826409049e-04, 0.000000000000000e+00, 0.000000000000000e+00, 3.829708722707780e+01, 0.000000000000000e+00
86, 9.838551560343448e-02, -4.628967359474944e-02, 1.797593054559732e-04, 0.000000000000000e+00, 0.000000000000000e+00, 3.844698200147531e+01, 0.000000000000000e+00
87, 8.391230598462590e-02, -4.363106518129783e-02, 1.804223505393521e-04, 0.000000000000000e+00, 0.000000000000000e+00, 3.859750058412542e+01, 0.000000000000000e+00
88, 7.115831019240228e-02, -4.091264364521334e-02, 1.810795156491903e-04, 0.000000000000000e+00, 0.000000000000000e+00, 3.874681767355050e+01, 0.000000000000000e+00
89, 5.997667081241873e-02, -3.816999333835450e-02, 1.817192499770084e-04, 0.000000000000000e+00, 0.000000000000000e+00, 3.889232942245023e+01, 0.000000000000000e+00
90, 5.022241269090757e-02, -3.543266689255811e-02, 1.823287391162359e-04, 0.000000000000000e+00, 0.000000000000000e+00, 3.903111693253036e+01, 0.000000000000000e+00
91, 4.175587666437301e-02, -3.272472343659386e-02, 1.828915307315880e-04, 0.000000000000000e+00, 0.000000000000000e+00, 3.915942540926036e+01, 0.000000000000000e+00
92, 3.444508613221498e-02, -3.006547322461565e-02, 1.833875545410780e-04, 0.000000000000000e+00, 0.000000000000000e+00, 3.927265315145564e+01, 0.000000000000000e+00
93, 2.816723852735188e-02, -2.747032780714164e-02, 1.837924290390923e-04, 0.000000000000000e+00, 0.000000000000000e+00, 3.936519441530366e+01, 0.000000000000000e+00
94, 2.280943840223927e-02, -2.495170224279449e-02, 1.840779307247247e-04, 0.000000000000000e+00, 0.000000000000000e+00, 3.943053371820149e+01, 0.000000000000000e+00
95, 1.826885694347390e-02, -2.251990184115951e-02, 1.842120102269889e-04, 0.000000000000000e+00, 0.000000000000000e+00, 3.946125510391875e+01, 0.000000000000000e+00
96, 1.445220176924677e-02, -2.018402699144572e-02, 1.841602199131432e-04, 0.000000000000000e+00, 0.000000000000000e+00, 3.944937454518866e+01, 0.000000000000000e+00
97, 1.127516040522520e-02, -1.795262732939143e-02, 1.838886985844518e-04, 0.000000000000000e+00, 0.000000000000000e+00, 3.938705155379167e+01, 0.000000000000000e+00
98, 8.660977828664375e-03, -1.583432528077909e-02, 1.833689638188328e-04, 0.000000000000000e+00, 0.000000000000000e+00, 3.926772336662798e+01, 0.000000000000000e+00
99, 6.539262456987240e-03, -1.383809857154541e-02, 1.825854026399376e-04, 0.000000000000000e+00, 0.000000000000000e+00, 3.908785008182285e+01, 0.000000000000000e+00
100, 4.844550253733529e-03, -1.197282395717829e-02, 1.815423824910112e-04, 0.000000000000000e+00, 0.000000000000000e+00, 3.884856464087036e+01, 0.000000000000000e+00
101, 3.515319859016383e-03, -1.024671366603845e-02, 1.802710294730402e-04, 0.000000000000000e+00, 0.000000000000000e+00, 3.855718764637035e+01, 0.000000000000000e+00
102, 2.493434235242850e-03, -8.666019672232862e-03, 1.788261725364563e-04, 0.000000000000000e+00, 0.000000000000000e+00, 3.822650275039165e+01, 0.000000000000000e+00
103, 1.724623063799526e-03, -7.234076671312168e-03, 1.772813371535235e-04, 0.000000000000000e+00, 0.000000000000000e+00, 3.787349842123446e+01, 0.000000000000000e+00
104, 1.159193085740397e-03, -5.950300022223502e-03, 1.757148431788939e-04, 0.000000000000000e+00, 0.000000000000000e+00, 3.751614909443682e+01, 0.000000000000000e+00
105, 7.531893324873004e-04, -4.810177416320721e-03, 1.741940121332883e-04, 0.000000000000000e+00, 0.000000000000000e+00, 3.716983319058215e+01, 0.000000000000000e+00
106, 4.691284473891598e-04, -3.805771251873249e-03, 1.727671104899599e-04, 0.000000000000000e+00, 0.000000000000000e+00, 3.684551426697471e+01, 0.000000000000000e+00
107, 2.762360161117116e-04, -2.926719015761365e-03, 1.714613476241259e-04, 0.000000000000000e+00, 0.000000000000000e+00, 3.654933138392713e+01, 0.000000000000000e+00
108, 1.500786146402364e-04, -2.161299885350869e-03, 1.702856532663768e-04, 0.000000000000000e+00, 0.000000000000000e+00, 3.628327365979907e+01, 0.000000000000000e+00
109, 7.180327325045228e-05, -1.497376923399532e-03, 1.692353487618938e-04, 0.000000000000000e+00, 0.000000000000000e+00, 3.604627530775986e+01, 0.000000000000000e+00
110, 2.721275945542452e-05, -9.231024271926752e-04, 1.683074693190439e-04, 0.000000000000000e+00, 0.000000000000000e+00, 3.583756929451933e+01, 0.000000000000000e+00
111, 5.818606343871792e-06, -4.273592490875973e-04, 1.675238080036453e-04, 0.000000000000000e+00, 0.000000000000000e+00, 3.566166864604662e+01, 0.000000000000000e+00
112, 0.000000000000000e+00, 0.000000000000000e+00, 1.668555482182379e-04, 0.000000000000000e+00, 0.000000000000000e+00, 3.551247210339837e+01, 0.000000000000000e+00
113, 5.818606344095651e-06, 4.273592490958099e-04, 1.649374830637706e-04, 0.000000000000000e+00, 0.000000000000000e+00, 3.510202517774624e+01, 0.000000000000000e+00
114, 2.721275945665566e-05, 9.231024272135111e-04, 1.641775966018628e-04, 0.000000000000000e+00, 0.000000000000000e+00, 3.492993371974524e+01, 0.000000000000000e+00
115, 7.180327325368544e-05, 1.497376923433127e-03, 1.637827936173715e-04, 0.000000000000000e+00, 0.000000000000000e+00, 3.483370623032980e+01, 0.000000000000000e+00
116, 1.500786146456709e-04, 2.161299885389794e-03, 1.635564980262227e-04, 0.000000000000000e+00, 0.000000000000000e+00, 3.477197396576066e+01, 0.000000000000000e+00
117, 2.762360161229505e-04, 2.926719015820480e-03, 1.630743125525053e-04, 0.000000000000000e+00, 0.000000000000000e+00, 3.465476489626333e+01, 0.000000000000000e+00
118, 4.691284474090552e-04, 3.805771251953191e-03, 1.621848890779242e-04, 0.000000000000000e+00, 0.000000000000000e+00, 3.445037186521228e+01, 0.000000000000000e+00
119, 7.531893325176259e-04, 4.810177416416397e-03, 1.610961921650409e-04, 0.000000000000000e+00, 0.000000000000000e+00, 3.420361580125145e+01, 0.000000000000000e+00
120, 1.159193085789885e-03, 5.950300022348630e-03, 1.599304793022475e-04, 0.000000000000000e+00, 0.000000000000000e+00, 3.394136433782098e+01, 0.000000000000000e+00
