"PointID","x","y","Density","Momentum_x","Momentum_y","Energy","Nu_Tilde"
0, 5.010000078023450e+02, 5.352202629500000e-08, 1.758523948915172e-04, 1.738785795292499e-02, 5.292813391673680e-03, 3.789737670628016e+01, 3.085521535559897e-01
1, 4.052709646366250e+02, 5.352202629500000e-08, 1.760686068809459e-04, 1.733618495614163e-02, 5.299342674859367e-03, 3.795437607277994e+01, 3.088210704375441e-01
2, 3.278693397908290e+02, 5.352202629500000e-08, 1.760756633940424e-04, 1.733377009737828e-02, 5.299541536854577e-03, 3.795650808924022e+01, 3.088307782984580e-01
3, 2.652863312215480e+02, 5.352202629500000e-08, 1.760755895560405e-04, 1.733400572499597e-02, 5.299550928236720e-03, 3.795640817913421e+01, 3.088300678058353e-01
4, 2.146849004455700e+02, 5.352202629500000e-08, 1.760756208764535e-04, 1.733405356903411e-02, 5.299625548608695e-03, 3.795641721650033e+01, 3.088276771435587e-01
5, 1.737711627536290e+02, 5.352202629500000e-08, 1.760757443874103e-04, 1.733415729162038e-02, 5.300013878433124e-03, 3.795647565760149e+01, 3.088237890761049e-01
6, 1.406903998926780e+02, 5.352202629500000e-08, 1.760758332149947e-04, 1.733437818265272e-02, 5.301303847248059e-03, 3.795656155899834e+01, 3.088166944326410e-01
7, 1.139429812211730e+02, 5.352202629500000e-08, 1.760754388489316e-04, 1.733468620810369e-02, 5.304024449400892e-03, 3.795655735100895e+01, 3.088024644732161e-01
8, 9.231638184086459e+01, 5.352202629500000e-08, 1.760746907507621e-04, 1.733553310823753e-02, 5.308058135296829e-03, 3.795654857748687e+01, 3.087745883839069e-01
9, 7.483021592330550e+01, 5.352202629500000e-08, 1.760747672039603e-04, 1.733893055813393e-02, 5.314097375811573e-03, 3.795709303765740e+01, 3.087200913599555e-01
10, 6.069179345940150e+01, 5.352202629500000e-08, 1.760746629089346e-04, 1.734886627684666e-02, 5.323741103067144e-03, 3.795832769950533e+01, 3.086084413556228e-01
11, 4.926018571243980e+01, 5.352202629500000e-08, 1.760728482879446e-04, 1.737164501249027e-02, 5.331411044154179e-03, 3.796029957578170e+01, 3.083974437407541e-01
12, 4.001717037504760e+01, 5.352202629500000e-08, 1.760725926693951e-04, 1.740680026618458e-02, 5.319952243517521e-03, 3.796336448779233e+01, 3.080441179120378e-01
13, 3.254373930407910e+01, 5.352202629500000e-08, 1.760738326491751e-04, 1.742785283247624e-02, 5.277930138337407e-03, 3.796450866796120e+01, 3.075483777328448e-01
14, 2.650110387248250e+01, 5.352202629500000e-08, 1.760728540556592e-04, 1.740994878680932e-02, 5.235432844863662e-03, 3.796116670488994e+01, 3.068961086391495e-01
15, 2.161533686500620e+01, 5.352202629500000e-08, 1.760698283567459e-04, 1.738693070933145e-02, 5.235288876413802e-03, 3.795805952541469e+01, 3.061591807610366e-01
16, 1.766495469789320e+01, 5.352202629500000e-08, 1.760699367165890e-04, 1.739451220537902e-02, 5.241239154524672e-03, 3.795906033581287e+01, 3.052789418327403e-01
17, 1.447087703467990e+01, 5.352202629500000e-08, 1.760750505440151e-04, 1.740049280337780e-02, 5.225364819105034e-03, 3.796032857583825e+01, 3.042293564281688e-01
18, 1.188830864330480e+01, 5.352202629500000e-08, 1.760592916890170e-04, 1.740905747924268e-02, 5.229890338980865e-03, 3.795700392168016e+01, 3.028932757913554e-01
19, 9.800175479560719e+00, 5.352202629500000e-08, 1.760539725730366e-04, 1.744504774964461e-02, 5.209124115178242e-03, 3.795837480711690e+01, 3.011844745195371e-01
20, 8.111817438747661e+00, 5.352202629500000e-08, 1.760587867906120e-04, 1.745980545527811e-02, 5.149651654689575e-03, 3.795970622972126e+01, 2.990109947602231e-01
21, 6.746697185177710e+00, 5.352202629500000e-08, 1.760713947772684e-04, 1.744726843505283e-02, 5.122676644328123e-03, 3.796089110205133e+01, 2.962428415585830e-01
22, 5.642930530440520e+00, 5.352202629500000e-08, 1.760270170333384e-04, 1.744697006078363e-02, 5.146483482424501e-03, 3.794867478736614e+01, 2.926254691886657e-01
23, 4.750481074120650e+00, 5.352202629500000e-08, 1.759771455142522e-04, 1.750129507274394e-02, 5.119054783469014e-03, 3.793999809617382e+01, 2.880173522699109e-01
24, 4.028891933275240e+00, 5.352202629500000e-08, 1.760071501980058e-04, 1.754134498654445e-02, 5.002095805782428e-03, 3.794896011732602e+01, 2.824923345695143e-01
25, 3.445451734506840e+00, 5.352202629500000e-08, 1.759559872053883e-04, 1.745632723765899e-02, 4.858363690044133e-03, 3.792587351481500e+01, 2.762917413183542e-01
26, 2.973711728635770e+00, 5.352202629500000e-08, 1.761315342091409e-04, 1.711461708725878e-02, 4.833227511226586e-03, 3.793423349461402e+01, 2.713173206489632e-01
27, 2.592286805209170e+00, 5.352202629500000e-08, 1.758290226950084e-04, 1.718349925331570e-02, 5.646505838684476e-03, 3.789043413446692e+01, 2.731527432534391e-01
28, 2.283886053947150e+00, 5.352202629500000e-08, 1.750939103759066e-04, 1.864742402522420e-02, 5.751019312690385e-03, 3.790796374131022e+01, 3.013195011659027e-01
29, 2.034528926141940e+00, 5.352202629500000e-08, 1.751358309160724e-04, 1.800636037780478e-02, 2.110841170422630e-03, 3.794340341018439e+01, 3.814953668661052e-01
30, 1.832911462718730e+00, 5.352202629500000e-08, 1.756907989995276e-04, 1.195661832938224e-02, -8.749363140266663e-05, 3.761377410716717e+01, 4.240272278261816e-01
31, 1.669893858549960e+00, 5.352202629500000e-08, 1.766362215682708e-04, 1.041946128032159e-02, 5.151009487514992e-03, 3.759649255601221e+01, 2.843169796963179e-01
32, 1.538086133079550e+00, 5.352202629500000e-08, 1.759709972371477e-04, 1.307282931819361e-02, 9.862776988857238e-03, 3.773003227123595e+01, 2.090822214448508e-01
33, 1.431513124708660e+00, 5.352202629500000e-08, 1.742457469335149e-04, 1.553947629664953e-02, 1.123692236538901e-02, 3.756289877492688e+01, 1.885740841854612e-01
34, 1.345343622331700e+00, 5.352202629500000e-08, 1.722627499151504e-04, 1.839047563371706e-02, 1.198849060956392e-02, 3.734321402696717e+01, 1.727610759261220e-01
35, 1.275671354903060e+00, 5.352202629500000e-08, 1.704685047033588e-04, 2.073594677689804e-02, 1.083799544226878e-02, 3.712054601049102e+01, 1.650117703022693e-01
36, 1.219337910763940e+00, 5.352202629500000e-08, 1.695454702850901e-04, 2.113091204755034e-02, 8.126259051075469e-03, 3.693339695430565e+01, 1.691012615087786e-01
37, 1.173789559236190e+00, 5.352202629500000e-08, 1.693792841195987e-04, 1.906626187782560e-02, 5.148293991232829e-03, 3.674169731452920e+01, 1.784864018796599e-01
38, 1.136961483861060e+00, 5.352202629500000e-08, 1.696294507238342e-04, 1.608346294159556e-02, 3.186237877130423e-03, 3.660645965303539e+01, 1.792869317615523e-01
39, 1.107184179296940e+00, 5.352202629500000e-08, 1.701274097579565e-04, 1.344188467868512e-02, 2.038453423159419e-03, 3.656584079284669e+01, 1.685132652552578e-01
40, 1.083107768621840e+00, 5.352202629500000e-08, 1.704000303138917e-04, 1.126534890269407e-02, 1.485487587451736e-03, 3.652216050441199e+01, 1.517715980364313e-01
41, 1.063640810162010e+00, 5.352202629500000e-08, 1.706618893731383e-04, 9.455569539885413e-03, 1.094894186479266e-03, 3.649786203114411e+01, 1.334596286431955e-01
42, 1.047900819812490e+00, 5.352202629500000e-08, 1.707322290784578e-04, 7.889584583562969e-03, 8.866924128474461e-04, 3.645146774620689e+01, 1.151548513492340e-01
43, 1.035174265907630e+00, 5.352202629500000e-08, 1.707651788910549e-04, 6.531956383168828e-03, 7.403415375813224e-04, 3.641093977636952e+01, 9.746665681136651e-02
44, 1.024884223112370e+00, 5.352202629500000e-08, 1.706644776907514e-04, 5.307229430480931e-03, 6.422613736268542e-04, 3.635302380916762e+01, 8.038212189572316e-02
45, 1.016564219007590e+00, 5.352202629500000e-08, 1.705068110065629e-04, 4.190384534038122e-03, 5.363690150641511e-04, 3.629151659830956e+01, 6.363515667487410e-02
46, 1.009837087771990e+00, 5.352202629500000e-08, 1.702414269684910e-04, 3.087449141549620e-03, 4.212383507430135e-04, 3.621340766210784e+01, 4.660854093049600e-02
47, 1.004397872347220e+00, 5.352202629500000e-08, 1.697389900697902e-04, 1.916316679310045e-03, 2.028025219586343e-04, 3.608849672440403e+01, 2.814218822535645e-02
48, 1.000000000000000e+00, 5.352202629500000e-08, 1.697906192103698e-04, 0.000000000000000e+00, 0.000000000000000e+00, 3.608679579875811e+01, 0.000000000000000e+00
49, 9.957820729228830e-01, -5.967886532841323e-04, 1.702710154483217e-04, 0.000000000000000e+00, 0.000000000000000e+00, 3.627634229097556e+01, 0.000000000000000e+00
50, 9.909241437988340e-01, -1.280289614488857e-03, 1.701252490638289e-04, 0.000000000000000e+00, 0.000000000000000e+00, 3.628586450838809e+01, 0.000000000000000e+00
51, 9.853368952903420e-01, -2.061293361678059e-03, 1.699908921091049e-04, 0.000000000000000e+00, 0.000000000000000e+00, 3.627986302700248e+01, 0.000000000000000e+00
52, 9.789211302792580e-01, -2.951446198418808e-03, 1.698164482843289e-04, 0.000000000000000e+00, 0.000000000000000e+00, 3.625651457524746e+01, 0.000000000000000e+00
53, 9.715675460812661e-01, -3.963073044857662e-03, 1.697327467765965e-04, 0.000000000000000e+00, 0.000000000000000e+00, 3.624668575933254e+01, 0.000000000000000e+00
54, 9.631568360186920e-01, -5.108981458577545e-03, 1.697207712130494e-04, 0.000000000000000e+00, 0.000000000000000e+00, 3.624781115373712e+01, 0.000000000000000e+00
55, 9.535602429161220e-01, -6.402177880090121e-03, 1.698084529231643e-04, 0.000000000000000e+00, 0.000000000000000e+00, 3.626708671459971e+01, 0.000000000000000e+00
56, 9.426407105822270e-01, -7.855481327107042e-03, 1.699317673344237e-04, 0.000000000000000e+00, 0.000000000000000e+00, 3.629248073788820e+01, 0.000000000000000e+00
57, 9.302547962764830e-01, -9.481022247350132e-03, 1.700796921653393e-04, 0.000000000000000e+00, 0.000000000000000e+00, 3.632304841555847e+01, 0.000000000000000e+00
58, 9.162555145009680e-01, -1.128961886009035e-02, 1.702164483966840e-04, 0.000000000000000e+00, 0.000000000000000e+00, 3.635199877736159e+01, 0.000000000000000e+00
59, 9.004962734807360e-01, -1.329003047580013e-02, 1.703542560459132e-04, 0.000000000000000e+00, 0.000000000000000e+00, 3.638198636239936e+01, 0.000000000000000e+00
60, 8.828360320456839e-01, -1.548809659764239e-02, 1.704858639999282e-04, 0.000000000000000e+00, 0.000000000000000e+00, 3.641107760157874e+01, 0.000000000000000e+00
61, 8.631457374960591e-01, -1.788578165295289e-02, 1.706309870747046e-04, 0.000000000000000e+00, 0.000000000000000e+00, 3.644294536703735e+01, 0.000000000000000e+00
62, 8.413159970120960e-01, -2.048015683562499e-02, 1.707835863456473e-04, 0.000000000000000e+00, 0.000000000000000e+00, 3.647598071301336e+01, 0.000000000000000e+00
63, 8.172657826166300e-01, -2.326236201353585e-02, 1.709568622948816e-04, 0.000000000000000e+00, 0.000000000000000e+00, 3.651288018828506e+01, 0.000000000000000e+00
64, 7.909517772165610e-01, -2.621660130830753e-02, 1.711399048645600e-04, 0.000000000000000e+00, 0.000000000000000e+00, 3.655142899269098e+01, 0.000000000000000e+00
65, 7.623777524675190e-01, -2.931923744885270e-02, 1.713405867434950e-04, 0.000000000000000e+00, 0.000000000000000e+00, 3.659345048534598e+01, 0.000000000000000e+00
66, 7.316031585245610e-01, -3.253806414443636e-02, 1.715492794153021e-04, 0.000000000000000e+00, 0.000000000000000e+00, 3.663707641120000e+01, 0.000000000000000e+00
67, 6.987499446352849e-01, -3.583185629664898e-02, 1.717727128383154e-04, 0.000000000000000e+00, 0.000000000000000e+00, 3.668387461533445e+01, 0.000000000000000e+00
68, 6.640065698311099e-01, -3.915032464739417e-02, 1.720032958896760e-04, 0.000000000000000e+00, 0.000000000000000e+00, 3.673233160138700e+01, 0.000000000000000e+00
69, 6.276282525902900e-01, -4.243462858861940e-02, 1.722483087105917e-04, 0.000000000000000e+00, 0.000000000000000e+00, 3.678409415174357e+01, 0.000000000000000e+00
70, 5.899327756923080e-01, -4.561861289428874e-02, 1.725020707692390e-04, 0.000000000000000e+00, 0.000000000000000e+00, 3.683798147329141e+01, 0.000000000000000e+00
71, 5.512916003363530e-01, -4.863090808605761e-02, 1.727720290564762e-04, 0.000000000000000e+00, 0.000000000000000e+00, 3.689565953988321e+01, 0.000000000000000e+00
72, 5.121166001065770e-01, -5.139794887290158e-02, 1.730548061309422e-04, 0.000000000000000e+00, 0.000000000000000e+00, 3.695639697326541e+01, 0.000000000000000e+00
73, 4.728433082391680e-01, -5.384781416072871e-02, 1.733572515545003e-04, 0.000000000000000e+00, 0.000000000000000e+00, 3.702173882270613e+01, 0.000000000000000e+00
74, 4.339120676130220e-01, -5.591460064650605e-02, 1.736782876958801e-04, 0.000000000000000e+00, 0.000000000000000e+00, 3.709143422971979e+01, 0.000000000000000e+00
75, 3.957487779587870e-01, -5.754285488135374e-02, 1.740235440861153e-04, 0.000000000000000e+00, 0.000000000000000e+00, 3.716678820997632e+01, 0.000000000000000e+00
76, 3.587469844042950e-01, -5.869148183384367e-02, 1.743936204532165e-04, 0.000000000000000e+00, 0.000000000000000e+00, 3.724792792985291e+01, 0.000000000000000e+00
77, 3.232528390902350e-01, -5.933656107664884e-02, 1.747920066900414e-04, 0.000000000000000e+00, 0.000000000000000e+00, 3.733570781571542e+01, 0.000000000000000e+00
78, 2.895540445181870e-01, -5.947265120547269e-02, 1.752198645645359e-04, 0.000000000000000e+00, 0.000000000000000e+00, 3.743037871662713e+01, 0.000000000000000e+00
79, 2.578733448481230e-01, -5.911241796041434e-02, 1.756782191476255e-04, 0.000000000000000e+00, 0.000000000000000e+00, 3.753223178744097e+01, 0.000000000000000e+00
80, 2.283665749856950e-01, -5.828472232042683e-02, 1.761679942712595e-04, 0.000000000000000e+00, 0.000000000000000e+00, 3.764144318713059e+01, 0.000000000000000e+00
81, 2.011247989315330e-01, -5.703150512358030e-02, 1.766874971008035e-04, 0.000000000000000e+00, 0.000000000000000e+00, 3.775766530378008e+01, 0.000000000000000e+00
82, 1.761797307773510e-01, -5.540399685008031e-02, 1.772372827953846e-04, 0.000000000000000e+00, 0.000000000000000e+00, 3.788096029420398e+01, 0.000000000000000e+00
83, 1.535114573767690e-01, -5.345875993105773e-02, 1.778133525962253e-04, 0.000000000000000e+00, 0.000000000000000e+00, 3.801043566068416e+01, 0.000000000000000e+00
84, 1.330574640378200e-01, -5.125402533974487e-02, 1.784147125887301e-04, 0.000000000000000e+00, 0.000000000000000e+00, 3.814580298655532e+01, 0.000000000000000e+00
85, 1.147220644565820e-01, -4.884662296676224e-02, 1.790363988788402e-04, 0.000000000000000e+00, 0.000000000000000e+00, 3.828594245012847e+01, 0.000000000000000e+00
86, 9.838551560343448e-02, -4.628967359474944e-02, 1.796745761451321e-04, 0.000000000000000e+00, 0.000000000000000e+00, 3.842995335108483e+01, 0.000000000000000e+00
87, 8.391230598462590e-02, -4.363106518129783e-02, 1.803228228440081e-04, 0.000000000000000e+00, 0.000000000000000e+00, 3.857638808202774e+01, 0.000000000000000e+00
88, 7.115831019240228e-02, -4.091264364521334e-02, 1.809746694494763e-04, 0.000000000000000e+00, 0.000000000000000e+00, 3.872376618320707e+01, 0.000000000000000e+00
89, 5.997667081241873e-02, -3.816999333835450e-02, 1.816204315072086e-04, 0.000000000000000e+00, 0.000000000000000e+00, 3.886990053450986e+01, 0.000000000000000e+00
90, 5.022241269090757e-02, -3.543266689255811e-02, 1.822490512636022e-04, 0.000000000000000e+00, 0.000000000000000e+00, 3.901227518708590e+01, 0.000000000000000e+00
91, 4.175587666437301e-02, -3.272472343659386e-02, 1.828461768780030e-04, 0.000000000000000e+00, 0.000000000000000e+00, 3.914762420049587e+01, 0.000000000000000e+00
92, 3.444508613221498e-02, -3.006547322461565e-02, 1.833943899674078e-04, 0.000000000000000e+00, 0.000000000000000e+00, 3.927196147002754e+01, 0.000000000000000e+00
93, 2.816723852735188e-02, -2.747032780714164e-02, 1.838711387945118e-04, 0.000000000000000e+00, 0.000000000000000e+00, 3.938012501254411e+01, 0.000000000000000e+00
94, 2.280943840223927e-02, -2.495170224279449e-02, 1.842505079890056e-04, 0.000000000000000e+00, 0.000000000000000e+00, 3.946614427162874e+01, 0.000000000000000e+00
95, 1.826885694347390e-02, -2.251990184115951e-02, 1.845015203924311e-04, 0.000000000000000e+00, 0.000000000000000e+00, 3.952287720870275e+01, 0.000000000000000e+00
96, 1.445220176924677e-02, -2.018402699144572e-02, 1.845900727618649e-04, 0.000000000000000e+00, 0.000000000000000e+00, 3.954244873868074e+01, 0.000000000000000e+00
97, 1.127516040522520e-02, -1.795262732939143e-02, 1.844813735065368e-04, 0.000000000000000e+00, 0.000000000000000e+00, 3.951683044109842e+01, 0.000000000000000e+00
98, 8.660977828664375e-03, -1.583432528077909e-02, 1.841446187479521e-04, 0.000000000000000e+00, 0.000000000000000e+00, 3.943893970006511e+01, 0.000000000000000e+00
99, 6.539262456987240e-03, -1.383809857154541e-02, 1.835596566996400e-04, 0.000000000000000e+00, 0.000000000000000e+00, 3.930419815743069e+01, 0.000000000000000e+00
100, 4.844550253733529e-03, -1.197282395717829e-02, 1.827253085643856e-04, 0.000000000000000e+00, 0.000000000000000e+00, 3.911244179754789e+01, 0.000000000000000e+00
101, 3.515319859016383e-03, -1.024671366603845e-02, 1.816649091182131e-04, 0.000000000000000e+00, 0.000000000000000e+00, 3.886917248215889e+01, 0.000000000000000e+00
102, 2.493434235242850e-03, -8.666019672232862e-03, 1.804265102994135e-04, 0.000000000000000e+00, 0.000000000000000e+00, 3.858554983796974e+01, 0.000000000000000e+00
103, 1.724623063799526e-03, -7.234076671312168e-03, 1.790772765242477e-04, 0.000000000000000e+00, 0.000000000000000e+00, 3.827702472316304e+01, 0.000000000000000e+00
104, 1.159193085740397e-03, -5.950300022223502e-03, 1.776905216405319e-04, 0.000000000000000e+00, 0.000000000000000e+00, 3.796034121035353e+01, 0.000000000000000e+00
105, 7.531893324873004e-04, -4.810177416320721e-03, 1.763335995790429e-04, 0.000000000000000e+00, 0.000000000000000e+00, 3.765075526078668e+01, 0.000000000000000e+00
106, 4.691284473891598e-04, -3.805771251873249e-03, 1.750582910473614e-04, 0.000000000000000e+00, 0.000000000000000e+00, 3.735988910472932e+01, 0.000000000000000e+00
107, 2.762360161117116e-04, -2.926719015761365e-03, 1.738971296369704e-04, 0.000000000000000e+00, 0.000000000000000e+00, 3.709496459641354e+01, 0.000000000000000e+00
108, 1.500786146402364e-04, -2.161299885350869e-03, 1.728663169663186e-04, 0.000000000000000e+00, 0.000000000000000e+00, 3.685949739030864e+01, 0.000000000000000e+00
109, 7.180327325045228e-05, -1.497376923399532e-03, 1.719700071584254e-04, 0.000000000000000e+00, 0.000000000000000e+00, 3.665428833576317e+01, 0.000000000000000e+00
110, 2.721275945542452e-05, -9.231024271926752e-04, 1.712061114416667e-04, 0.000000000000000e+00, 0.000000000000000e+00, 3.647871488592213e+01, 0.000000000000000e+00
111, 5.818606343871792e-06, -4.273592490875973e-04, 1.705522425508076e-04, 0.000000000000000e+00, 0.000000000000000e+00, 3.632775290550053e+01, 0.000000000000000e+00
112, 0.000000000000000e+00, 0.000000000000000e+00, 1.699380118590200e-04, 0.000000000000000e+00, 0.000000000000000e+00, 3.618597358822116e+01, 0.000000000000000e+00
113, 5.818606344095651e-06, 4.273592490958099e-04, 1.694822505274284e-04, 0.000000000000000e+00, 0.000000000000000e+00, 3.607406760180011e+01, 0.000000000000000e+00
114, 2.721275945665566e-05, 9.231024272135111e-04, 1.687475415287823e-04, 0.000000000000000e+00, 0.000000000000000e+00, 3.590907844677223e+01, 0.000000000000000e+00
115, 7.180327325368544e-05, 1.497376923433127e-03, 1.677301625270040e-04, 0.000000000000000e+00, 0.000000000000000e+00, 3.568378986189221e+01, 0.000000000000000e+00
116, 1.500786146456709e-04, 2.161299885389794e-03, 1.665520664820504e-04, 0.000000000000000e+00, 0.000000000000000e+00, 3.542355707333238e+01, 0.000000000000000e+00
117, 2.762360161229505e-04, 2.926719015820480e-03, 1.652778750491118e-04, 0.000000000000000e+00, 0.000000000000000e+00, 3.514200796869272e+01, 0.000000000000000e+00
118, 4.691284474090552e-04, 3.805771251953191e-03, 1.639292142176251e-04, 0.000000000000000e+00, 0.000000000000000e+00, 3.484382393915484e+01, 0.000000000000000e+00
119, 7.531893325176259e-04, 4.810177416416397e-03, 1.625410569132526e-04, 0.000000000000000e+00, 0.000000000000000e+00, 3.453671218078929e+01, 0.000000000000000e+00
120, 1.159193085789885e-03, 5.950300022348630e-03, 1.611750203546903e-04, 0.000000000000000e+00, 0.000000000000000e+00, 3.423423151623668e+01, 0.000000000000000e+00
