"PointID","x","y","Density","Momentum_x","Momentum_y","Energy","Nu_Tilde"
0, 5.010000078023450e+02, 5.352202629500000e-08, 1.760135702066859e-04, 1.734905059611037e-02, 5.297674896540891e-03, 3.793997247973604e+01, 3.087558059623869e-01
1, 4.052709646366250e+02, 5.352202629500000e-08, 1.760750355796439e-04, 1.733420630412398e-02, 5.299527236990918e-03, 3.795623539667671e+01, 3.088319281867021e-01
2, 3.278693397908290e+02, 5.352202629500000e-08, 1.760755921353932e-04, 1.733398513763179e-02, 5.299542452037225e-03, 3.795641408656334e+01, 3.088316993387660e-01
3, 2.652863312215480e+02, 5.352202629500000e-08, 1.760755696725150e-04, 1.733402207320146e-02, 5.299545894556165e-03, 3.795639801902495e+01, 3.088304016758254e-01
4, 2.146849004455700e+02, 5.352202629500000e-08, 1.760755973009602e-04, 1.733403873182354e-02, 5.299583966344512e-03, 3.795640826512034e+01, 3.088282643618400e-01
5, 1.737711627536290e+02, 5.352202629500000e-08, 1.760757019278384e-04, 1.733411375866874e-02, 5.299823422470935e-03, 3.795645327844063e+01, 3.088248220779488e-01
6, 1.406903998926780e+02, 5.352202629500000e-08, 1.760758628430064e-04, 1.733431414305034e-02, 5.300771913556513e-03, 3.795654857283586e+01, 3.088188305113215e-01
7, 1.139429812211730e+02, 5.352202629500000e-08, 1.760756887670348e-04, 1.733461391569014e-02, 5.303136295966018e-03, 3.795659672345294e+01, 3.088070361678419e-01
8, 9.231638184086459e+01, 5.352202629500000e-08, 1.760748701216108e-04, 1.733514865023522e-02, 5.307007052973694e-03, 3.795652682347508e+01, 3.087834993893792e-01
9, 7.483021592330550e+01, 5.352202629500000e-08, 1.760745427083829e-04, 1.733740257095499e-02, 5.312468333156823e-03, 3.795682667684697e+01, 3.087381706924199e-01
10, 6.069179345940150e+01, 5.352202629500000e-08, 1.760750446701118e-04, 1.734494992613414e-02, 5.321481769312060e-03, 3.795798771205505e+01, 3.086461992983568e-01
11, 4.926018571243980e+01, 5.352202629500000e-08, 1.760737648869259e-04, 1.736381401909561e-02, 5.332187239650889e-03, 3.795979985672373e+01, 3.084638603146821e-01
12, 4.001717037504760e+01, 5.352202629500000e-08, 1.760721867346195e-04, 1.739852711251052e-02, 5.329633339234626e-03, 3.796271893254662e+01, 3.081424441146197e-01
13, 3.254373930407910e+01, 5.352202629500000e-08, 1.760724575007261e-04, 1.743116190219787e-02, 5.294853281637923e-03, 3.796496989780771e+01, 3.076585083043558e-01
14, 2.650110387248250e+01, 5.352202629500000e-08, 1.760737138709919e-04, 1.742556239184243e-02, 5.241651007760605e-03, 3.796314997589445e+01, 3.070156845008221e-01
15, 2.161533686500620e+01, 5.352202629500000e-08, 1.760734248895719e-04, 1.739535473095319e-02, 5.225317172157708e-03, 3.795962539531740e+01, 3.062387161479932e-01
16, 1.766495469789320e+01, 5.352202629500000e-08, 1.760670621924381e-04, 1.739316470979477e-02, 5.238913124611046e-03, 3.795805585587894e+01, 3.053132460331437e-01
17, 1.447087703467990e+01, 5.352202629500000e-08, 1.760663558360337e-04, 1.740069022678643e-02, 5.220401277024808e-03, 3.795790625798182e+01, 3.042444224143898e-01
18, 1.188830864330480e+01, 5.352202629500000e-08, 1.760652485579370e-04, 1.739037064811694e-02, 5.213280008201419e-03, 3.795630230032785e+01, 3.029060881030156e-01
19, 9.800175479560719e+00, 5.352202629500000e-08, 1.760582837864585e-04, 1.741390440154517e-02, 5.232783756831695e-03, 3.795751329485138e+01, 3.012154256345921e-01
20, 8.111817438747661e+00, 5.352202629500000e-08, 1.760627086891944e-04, 1.746747024176415e-02, 5.215848705530181e-03, 3.796314548360114e+01, 2.990397097756008e-01
21, 6.746697185177710e+00, 5.352202629500000e-08, 1.760306257344690e-04, 1.750789446688757e-02, 5.164635839919020e-03, 3.795692947924567e+01, 2.961688905678208e-01
22, 5.642930530440520e+00, 5.352202629500000e-08, 1.760196062049573e-04, 1.748653156306057e-02, 5.072649031189187e-03, 3.794820485664231e+01, 2.925431397128519e-01
23, 4.750481074120650e+00, 5.352202629500000e-08, 1.760169350539675e-04, 1.745282571268666e-02, 5.050640964105987e-03, 3.794472008846932e+01, 2.881532265360351e-01
24, 4.028891933275240e+00, 5.352202629500000e-08, 1.760344098395297e-04, 1.747948451671955e-02, 5.068488073967642e-03, 3.795175510429088e+01, 2.830499212496766e-01
25, 3.445451734506840e+00, 5.352202629500000e-08, 1.760072763008283e-04, 1.750969543428206e-02, 5.057646734688838e-03, 3.794786562701253e+01, 2.786950959604164e-01
26, 2.973711728635770e+00, 5.352202629500000e-08, 1.758122236747499e-04, 1.771851077118397e-02, 5.182477454877548e-03, 3.792772947811614e+01, 2.795791517139261e-01
27, 2.592286805209170e+00, 5.352202629500000e-08, 1.754630640949203e-04, 1.817354494435890e-02, 4.706311742855906e-03, 3.792549771126200e+01, 2.943347127751837e-01
28, 2.283886053947150e+00, 5.352202629500000e-08, 1.759699385643008e-04, 1.674611159670620e-02, 2.564279860282816e-03, 3.795894989702453e+01, 3.210682400282460e-01
29, 2.034528926141940e+00, 5.352202629500000e-08, 1.761038105227245e-04, 1.341185994437175e-02, 3.689003156952119e-03, 3.767145718675180e+01, 2.939806730308819e-01
30, 1.832911462718730e+00, 5.352202629500000e-08, 1.761781226014972e-04, 1.455910874824434e-02, 8.565745181351654e-03, 3.783641699054760e+01, 2.343784316599782e-01
31, 1.669893858549960e+00, 5.352202629500000e-08, 1.751109847030308e-04, 1.805818925289884e-02, 9.876295010171128e-03, 3.795313101074737e+01, 2.166063163844047e-01
32, 1.538086133079550e+00, 5.352202629500000e-08, 1.731894138153926e-04, 2.098491937661698e-02, 8.938704582368583e-03, 3.776303760390916e+01, 2.217252362522114e-01
33, 1.431513124708660e+00, 5.352202629500000e-08, 1.729566986010409e-04, 2.252368327194486e-02, 5.373142723620670e-03, 3.785080596975217e+01, 2.783098461639710e-01
34, 1.345343622331700e+00, 5.352202629500000e-08, 1.744502966418312e-04, 1.831754309697585e-02, 7.240086628443110e-05, 3.789437108655851e+01, 3.608164668333541e-01
35, 1.275671354903060e+00, 5.352202629500000e-08, 1.762762239455189e-04, 1.253449036716408e-02, -2.110992347605749e-04, 3.790562343657983e+01, 3.508504660002392e-01
36, 1.219337910763940e+00, 5.352202629500000e-08, 1.761633125241909e-04, 1.112765564415765e-02, 2.695933477846041e-03, 3.775907124429934e+01, 2.827099574093555e-01
37, 1.173789559236190e+00, 5.352202629500000e-08, 1.751553927951511e-04, 1.046766106460242e-02, 4.262418735845603e-03, 3.748995382934700e+01, 2.373253823957518e-01
38, 1.136961483861060e+00, 5.352202629500000e-08, 1.738420512254461e-04, 9.752329258715244e-03, 5.183816851055084e-03, 3.716838220981580e+01, 2.061362769652455e-01
39, 1.107184179296940e+00, 5.352202629500000e-08, 1.723196546872429e-04, 9.081359107613712e-03, 5.863673329958528e-03, 3.682221331736193e+01, 1.829739730841752e-01
40, 1.083107768621840e+00, 5.352202629500000e-08, 1.706886565697714e-04, 8.453096755745629e-03, 6.162117031352436e-03, 3.645286279376462e+01, 1.651110155673511e-01
41, 1.063640810162010e+00, 5.352202629500000e-08, 1.691639090682110e-04, 7.835379816194055e-03, 6.078158197856365e-03, 3.610104606475489e+01, 1.495436470443466e-01
42, 1.047900819812490e+00, 5.352202629500000e-08, 1.678301498439301e-04, 7.163427869056983e-03, 5.665637260800529e-03, 3.578411134449114e+01, 1.343810409989947e-01
43, 1.035174265907630e+00, 5.352202629500000e-08, 1.667599346736183e-04, 6.424414739916279e-03, 5.002644951827701e-03, 3.551964685485105e+01, 1.186423499815940e-01
44, 1.024884223112370e+00, 5.352202629500000e-08, 1.659853204454995e-04, 5.600391571475748e-03, 4.164512107622829e-03, 3.531695099589787e+01, 1.017436925766402e-01
45, 1.016564219007590e+00, 5.352202629500000e-08, 1.654372479444729e-04, 4.693875090135888e-03, 3.202495258493215e-03, 3.516468909879412e+01, 8.317387378586172e-02
46, 1.009837087771990e+00, 5.352202629500000e-08, 1.651396596990587e-04, 3.633189102844903e-03, 2.210369473446041e-03, 3.507129890660603e+01, 6.223661132725746e-02
47, 1.004397872347220e+00, 5.352202629500000e-08, 1.646328861986432e-04, 2.429762462348736e-03, 1.071189428111130e-03, 3.494155666788502e+01, 3.763600084212501e-02
48, 1.000000000000000e+00, 5.352202629500000e-08, 1.650148011485583e-04, 0.000000000000000e+00, 0.000000000000000e+00, 3.501175118369091e+01, 0.000000000000000e+00
49, 9.957820729228830e-01, -5.967886532841323e-04, 1.649460693382931e-04, 0.000000000000000e+00, 0.000000000000000e+00, 3.510035233373746e+01, 0.000000000000000e+00
50, 9.909241437988340e-01, -1.280289614488857e-03, 1.651377078636111e-04, 0.000000000000000e+00, 0.000000000000000e+00, 3.518466574357206e+01, 0.000000000000000e+00
51, 9.853368952903420e-01, -2.061293361678059e-03, 1.655864097425404e-04, 0.000000000000000e+00, 0.000000000000000e+00, 3.529860895360897e+01, 0.000000000000000e+00
52, 9.789211302792580e-01, -2.951446198418808e-03, 1.661944080377033e-04, 0.000000000000000e+00, 0.000000000000000e+00, 3.543457625178324e+01, 0.000000000000000e+00
53, 9.715675460812661e-01, -3.963073044857662e-03, 1.667853670468625e-04, 0.000000000000000e+00, 0.000000000000000e+00, 3.556261789651333e+01, 0.000000000000000e+00
54, 9.631568360186920e-01, -5.108981458577545e-03, 1.673268928228443e-04, 0.000000000000000e+00, 0.000000000000000e+00, 3.567976389743838e+01, 0.000000000000000e+00
55, 9.535602429161220e-01, -6.402177880090121e-03, 1.677625046266355e-04, 0.000000000000000e+00, 0.000000000000000e+00, 3.577591668302497e+01, 0.000000000000000e+00
56, 9.426407105822270e-01, -7.855481327107042e-03, 1.681312939720814e-04, 0.000000000000000e+00, 0.000000000000000e+00, 3.585942859186903e+01, 0.000000000000000e+00
57, 9.302547962764830e-01, -9.481022247350132e-03, 1.684585914370710e-04, 0.000000000000000e+00, 0.000000000000000e+00, 3.593507099931335e+01, 0.000000000000000e+00
58, 9.162555145009680e-01, -1.128961886009035e-02, 1.687824916047621e-04, 0.000000000000000e+00, 0.000000000000000e+00, 3.601003525031518e+01, 0.000000000000000e+00
59, 9.004962734807360e-01, -1.329003047580013e-02, 1.691181059732267e-04, 0.000000000000000e+00, 0.000000000000000e+00, 3.608709623537223e+01, 0.000000000000000e+00
60, 8.828360320456839e-01, -1.548809659764239e-02, 1.694683388355439e-04, 0.000000000000000e+00, 0.000000000000000e+00, 3.616666059486663e+01, 0.000000000000000e+00
61, 8.631457374960591e-01, -1.788578165295289e-02, 1.698293185414849e-04, 0.000000000000000e+00, 0.000000000000000e+00, 3.624813789902456e+01, 0.000000000000000e+00
62, 8.413159970120960e-01, -2.048015683562499e-02, 1.701907496395323e-04, 0.000000000000000e+00, 0.000000000000000e+00, 3.632947226527464e+01, 0.000000000000000e+00
63, 8.172657826166300e-01, -2.326236201353585e-02, 1.705509637170677e-04, 0.000000000000000e+00, 0.000000000000000e+00, 3.641059650040115e+01, 0.000000000000000e+00
64, 7.909517772165610e-01, -2.621660130830753e-02, 1.709031411988745e-04, 0.000000000000000e+00, 0.000000000000000e+00, 3.649004341464747e+01, 0.000000000000000e+00
65, 7.623777524675190e-01, -2.931923744885270e-02, 1.712499919584772e-04, 0.000000000000000e+00, 0.000000000000000e+00, 3.656851129782623e+01, 0.000000000000000e+00
66, 7.316031585245610e-01, -3.253806414443636e-02, 1.715895072166189e-04, 0.000000000000000e+00, 0.000000000000000e+00, 3.664542109926004e+01, 0.000000000000000e+00
67, 6.987499446352849e-01, -3.583185629664898e-02, 1.719245502640098e-04, 0.000000000000000e+00, 0.000000000000000e+00, 3.672142932353699e+01, 0.000000000000000e+00
68, 6.640065698311099e-01, -3.915032464739417e-02, 1.722549694770771e-04, 0.000000000000000e+00, 0.000000000000000e+00, 3.679633127006218e+01, 0.000000000000000e+00
69, 6.276282525902900e-01, -4.243462858861940e-02, 1.725833168943899e-04, 0.000000000000000e+00, 0.000000000000000e+00, 3.687070960076799e+01, 0.000000000000000e+00
70, 5.899327756923080e-01, -4.561861289428874e-02, 1.729109279130512e-04, 0.000000000000000e+00, 0.000000000000000e+00, 3.694470327499487e+01, 0.000000000000000e+00
71, 5.512916003363530e-01, -4.863090808605761e-02, 1.732402345653619e-04, 0.000000000000000e+00, 0.000000000000000e+00, 3.701886521068185e+01, 0.000000000000000e+00
72, 5.121166001065770e-01, -5.139794887290158e-02, 1.735747062547019e-04, 0.000000000000000e+00, 0.000000000000000e+00, 3.709383646238715e+01, 0.000000000000000e+00
73, 4.728433082391680e-01, -5.384781416072871e-02, 1.739164925750561e-04, 0.000000000000000e+00, 0.000000000000000e+00, 3.717013293310622e+01, 0.000000000000000e+00
74, 4.339120676130220e-01, -5.591460064650605e-02, 1.742708627053265e-04, 0.000000000000000e+00, 0.000000000000000e+00, 3.724887652588133e+01, 0.000000000000000e+00
75, 3.957487779587870e-01, -5.754285488135374e-02, 1.746393499069508e-04, 0.000000000000000e+00, 0.000000000000000e+00, 3.733052581839812e+01, 0.000000000000000e+00
76, 3.587469844042950e-01, -5.869148183384367e-02, 1.750278845052623e-04, 0.000000000000000e+00, 0.000000000000000e+00, 3.741646199152506e+01, 0.000000000000000e+00
77, 3.232528390902350e-01, -5.933656107664884e-02, 1.754367520930346e-04, 0.000000000000000e+00, 0.000000000000000e+00, 3.750693011827735e+01, 0.000000000000000e+00
78, 2.895540445181870e-01, -5.947265120547269e-02, 1.758712979835295e-04, 0.000000000000000e+00, 0.000000000000000e+00, 3.760321692899651e+01, 0.000000000000000e+00
79, 2.578733448481230e-01, -5.911241796041434e-02, 1.763303992863917e-04, 0.000000000000000e+00, 0.000000000000000e+00, 3.770520460474909e+01, 0.000000000000000e+00
80, 2.283665749856950e-01, -5.828472232042683e-02, 1.768183210708359e-04, 0.000000000000000e+00, 0.000000000000000e+00, 3.781385043185080e+01, 0.000000000000000e+00
81, 2.011247989315330e-01, -5.703150512358030e-02, 1.773323230773564e-04, 0.000000000000000e+00, 0.000000000000000e+00, 3.792855578324968e+01, 0.000000000000000e+00
82, 1.761797307773510e-01, -5.540399685008031e-02, 1.778751250467299e-04, 0.000000000000000e+00, 0.000000000000000e+00, 3.804984969534162e+01, 0.000000000000000e+00
83, 1.535114573767690e-01, -5.345875993105773e-02, 1.784418846342437e-04, 0.000000000000000e+00, 0.000000000000000e+00, 3.817662922071672e+01, 0.000000000000000e+00
84, 1.330574640378200e-01, -5.125402533974487e-02, 1.790325032763573e-04, 0.000000000000000e+00, 0.000000000000000e+00, 3.830880371339244e+01, 0.000000000000000e+00
85, 1.147220644565820e-01, -4.884662296676224e-02, 1.796411255247759e-04, 0.000000000000000e+00, 0.000000000000000e+00, 3.844505772705233e+01, 0.000000000000000e+00
86, 9.838551560343448e-02, -4.628967359474944e-02, 1.802636876435314e-04, 0.000000000000000e+00, 0.000000000000000e+00, 3.858445943593193e+01, 0.000000000000000e+00
87, 8.391230598462590e-02, -4.363106518129783e-02, 1.808925296205272e-04, 0.000000000000000e+00, 0.000000000000000e+00, 3.872530448812939e+01, 0.000000000000000e+00
88, 7.115831019240228e-02, -4.091264364521334e-02, 1.815199277396463e-04, 0.000000000000000e+00, 0.000000000000000e+00, 3.886586670093949e+01, 0.000000000000000e+00
89, 5.997667081241873e-02, -3.816999333835450e-02, 1.821341223717250e-04, 0.000000000000000e+00, 0.000000000000000e+00, 3.900353291648214e+01, 0.000000000000000e+00
90, 5.022241269090757e-02, -3.543266689255811e-02, 1.827225318053523e-04, 0.000000000000000e+00, 0.000000000000000e+00, 3.913547577277168e+01, 0.000000000000000e+00
91, 4.175587666437301e-02, -3.272472343659386e-02, 1.832681494014082e-04, 0.000000000000000e+00, 0.000000000000000e+00, 3.925786374285254e+01, 0.000000000000000e+00
92, 3.444508613221498e-02, -3.006547322461565e-02, 1.837507895906607e-04, 0.000000000000000e+00, 0.000000000000000e+00, 3.936611204047749e+01, 0.000000000000000e+00
93, 2.816723852735188e-02, -2.747032780714164e-02, 1.841454544187674e-04, 0.000000000000000e+00, 0.000000000000000e+00, 3.945451581753536e+01, 0.000000000000000e+00
94, 2.280943840223927e-02, -2.495170224279449e-02, 1.844229810753077e-04, 0.000000000000000e+00, 0.000000000000000e+00, 3.951638069252682e+01, 0.000000000000000e+00
95, 1.826885694347390e-02, -2.251990184115951e-02, 1.845497349990292e-04, 0.000000000000000e+00, 0.000000000000000e+00, 3.954396374684368e+01, 0.000000000000000e+00
96, 1.445220176924677e-02, -2.018402699144572e-02, 1.844895224343902e-04, 0.000000000000000e+00, 0.000000000000000e+00, 3.952891440601723e+01, 0.000000000000000e+00
97, 1.127516040522520e-02, -1.795262732939143e-02, 1.842058825952906e-04, 0.000000000000000e+00, 0.000000000000000e+00, 3.946283240602760e+01, 0.000000000000000e+00
98, 8.660977828664375e-03, -1.583432528077909e-02, 1.836684388361043e-04, 0.000000000000000e+00, 0.000000000000000e+00, 3.933874105142189e+01, 0.000000000000000e+00
99, 6.539262456987240e-03, -1.383809857154541e-02, 1.828595861453831e-04, 0.000000000000000e+00, 0.000000000000000e+00, 3.915266577389880e+01, 0.000000000000000e+00
100, 4.844550253733529e-03, -1.197282395717829e-02, 1.817832746006955e-04, 0.000000000000000e+00, 0.000000000000000e+00, 3.890565031605875e+01, 0.000000000000000e+00
101, 3.515319859016383e-03, -1.024671366603845e-02, 1.804701438532142e-04, 0.000000000000000e+00, 0.000000000000000e+00, 3.860491536184969e+01, 0.000000000000000e+00
102, 2.493434235242850e-03, -8.666019672232862e-03, 1.789774396853674e-04, 0.000000000000000e+00, 0.000000000000000e+00, 3.826376835243293e+01, 0.000000000000000e+00
103, 1.724623063799526e-03, -7.234076671312168e-03, 1.773817333798478e-04, 0.000000000000000e+00, 0.000000000000000e+00, 3.789984803258432e+01, 0.000000000000000e+00
104, 1.159193085740397e-03, -5.950300022223502e-03, 1.757652067411092e-04, 0.000000000000000e+00, 0.000000000000000e+00, 3.753193894193848e+01, 0.000000000000000e+00
105, 7.531893324873004e-04, -4.810177416320721e-03, 1.741986810379466e-04, 0.000000000000000e+00, 0.000000000000000e+00, 3.717613348126260e+01, 0.000000000000000e+00
106, 4.691284473891598e-04, -3.805771251873249e-03, 1.727330983520145e-04, 0.000000000000000e+00, 0.000000000000000e+00, 3.684392095513063e+01, 0.000000000000000e+00
107, 2.762360161117116e-04, -2.926719015761365e-03, 1.713990195619788e-04, 0.000000000000000e+00, 0.000000000000000e+00, 3.654211227638154e+01, 0.000000000000000e+00
108, 1.500786146402364e-04, -2.161299885350869e-03, 1.702095525509162e-04, 0.000000000000000e+00, 0.000000000000000e+00, 3.627355632048358e+01, 0.000000000000000e+00
109, 7.180327325045228e-05, -1.497376923399532e-03, 1.691662361098035e-04, 0.000000000000000e+00, 0.000000000000000e+00, 3.603849882000468e+01, 0.000000000000000e+00
110, 2.721275945542452e-05, -9.231024271926752e-04, 1.682661745836223e-04, 0.000000000000000e+00, 0.000000000000000e+00, 3.583619374726280e+01, 0.000000000000000e+00
111, 5.818606343871792e-06, -4.273592490875973e-04, 1.675054614469159e-04, 0.000000000000000e+00, 0.000000000000000e+00, 3.566571651018117e+01, 0.000000000000000e+00
112, 0.000000000000000e+00, 0.000000000000000e+00, 1.668263117225658e-04, 0.000000000000000e+00, 0.000000000000000e+00, 3.551491402520490e+01, 0.000000000000000e+00
113, 5.818606344095651e-06, 4.273592490958099e-04, 1.654374335088917e-04, 0.000000000000000e+00, 0.000000000000000e+00, 3.521669538180794e+01, 0.000000000000000e+00
114, 2.721275945665566e-05, 9.231024272135111e-04, 1.645450755019727e-04, 0.000000000000000e+00, 0.000000000000000e+00, 3.501646242743060e+01, 0.000000000000000e+00
115, 7.180327325368544e-05, 1.497376923433127e-03, 1.636987912975740e-04, 0.000000000000000e+00, 0.000000000000000e+00, 3.482407933590053e+01, 0.000000000000000e+00
116, 1.500786146456709e-04, 2.161299885389794e-03, 1.627189721109144e-04, 0.000000000000000e+00, 0.000000000000000e+00, 3.460170160263737e+01, 0.000000000000000e+00
117, 2.762360161229505e-04, 2.926719015820480e-03, 1.615673057742059e-04, 0.000000000000000e+00, 0.000000000000000e+00, 3.434147317689175e+01, 0.000000000000000e+00
118, 4.691284474090552e-04, 3.805771251953191e-03, 1.602979582237763e-04, 0.000000000000000e+00, 0.000000000000000e+00, 3.405539108192034e+01, 0.000000000000000e+00
119, 7.531893325176259e-04, 4.810177416416397e-03, 1.589718759663799e-04, 0.000000000000000e+00, 0.000000000000000e+00, 3.375713784111762e+01, 0.000000000000000e+00
120, 1.159193085789885e-03, 5.950300022348630e-03, 1.576499412271768e-04, 0.000000000000000e+00, 0.000000000000000e+00, 3.346061898366308e+01, 0.000000000000000e+00
