"PointID","x","y","Density","Momentum_x","Momentum_y","Energy","Nu_Tilde"
0, 5.010000078023450e+02, 5.352202629500000e-08, 1.759295908014913e-04, 1.736930392654125e-02, 5.295140880462454e-03, 3.791775869640497e+01, 3.086497747262952e-01
1, 4.052709646366250e+02, 5.352202629500000e-08, 1.760710067355476e-04, 1.733543808741513e-02, 5.299411439873388e-03, 3.795507274629593e+01, 3.088250221395754e-01
2, 3.278693397908290e+02, 5.352202629500000e-08, 1.760756297940918e-04, 1.733385579876130e-02, 5.299541915442340e-03, 3.795646999604955e+01, 3.088310574446373e-01
3, 2.652863312215480e+02, 5.352202629500000e-08, 1.760755842024735e-04, 1.733401250070142e-02, 5.299551127185447e-03, 3.795640517311081e+01, 3.088300540989203e-01
4, 2.146849004455700e+02, 5.352202629500000e-08, 1.760756200683159e-04, 1.733405335393916e-02, 5.299625535763157e-03, 3.795641718309145e+01, 3.088276748347837e-01
5, 1.737711627536290e+02, 5.352202629500000e-08, 1.760757443671566e-04, 1.733415725692621e-02, 5.300013875052084e-03, 3.795647566455322e+01, 3.088237889662916e-01
6, 1.406903998926780e+02, 5.352202629500000e-08, 1.760758332206452e-04, 1.733437818264460e-02, 5.301303847346047e-03, 3.795656155968524e+01, 3.088166944382016e-01
7, 1.139429812211730e+02, 5.352202629500000e-08, 1.760754388496271e-04, 1.733468620809790e-02, 5.304024450253008e-03, 3.795655735098695e+01, 3.088024644713188e-01
8, 9.231638184086459e+01, 5.352202629500000e-08, 1.760746907502542e-04, 1.733553310771059e-02, 5.308058137634703e-03, 3.795654857705932e+01, 3.087745883753186e-01
9, 7.483021592330550e+01, 5.352202629500000e-08, 1.760747672000531e-04, 1.733893055683068e-02, 5.314097379178532e-03, 3.795709303645555e+01, 3.087200913051121e-01
10, 6.069179345940150e+01, 5.352202629500000e-08, 1.760746629004589e-04, 1.734886627582094e-02, 5.323741105353222e-03, 3.795832769829948e+01, 3.086084412632830e-01
11, 4.926018571243980e+01, 5.352202629500000e-08, 1.760728482758078e-04, 1.737164501355534e-02, 5.331411045010156e-03, 3.796029957545998e+01, 3.083974436000659e-01
12, 4.001717037504760e+01, 5.352202629500000e-08, 1.760725925135115e-04, 1.740680022976727e-02, 5.319952245529757e-03, 3.796336445086068e+01, 3.080441171799003e-01
13, 3.254373930407910e+01, 5.352202629500000e-08, 1.760738300480617e-04, 1.742785187626040e-02, 5.277930115378349e-03, 3.796450790571775e+01, 3.075483695411736e-01
14, 2.650110387248250e+01, 5.352202629500000e-08, 1.760728288195190e-04, 1.740993780915053e-02, 5.235432311501629e-03, 3.796115860348587e+01, 3.068960479836572e-01
15, 2.161533686500620e+01, 5.352202629500000e-08, 1.760696730565044e-04, 1.738685689800713e-02, 5.235282557749407e-03, 3.795800726336490e+01, 3.061588552895617e-01
16, 1.766495469789320e+01, 5.352202629500000e-08, 1.760693351853213e-04, 1.739420905480124e-02, 5.241191634204897e-03, 3.795885340688591e+01, 3.052777928744618e-01
17, 1.447087703467990e+01, 5.352202629500000e-08, 1.760736807233815e-04, 1.739974862690508e-02, 5.225137206001301e-03, 3.795985067734777e+01, 3.042268857209889e-01
18, 1.188830864330480e+01, 5.352202629500000e-08, 1.760577309094845e-04, 1.740799651442568e-02, 5.229192943679305e-03, 3.795643354745262e+01, 3.028907609486011e-01
19, 9.800175479560719e+00, 5.352202629500000e-08, 1.760533033524846e-04, 1.744389245877559e-02, 5.207732550554677e-03, 3.795802715425550e+01, 3.011834418104150e-01
20, 8.111817438747661e+00, 5.352202629500000e-08, 1.760579164622713e-04, 1.745761192651234e-02, 5.147694352278498e-03, 3.795916187396502e+01, 2.990100986181416e-01
21, 6.746697185177710e+00, 5.352202629500000e-08, 1.760701460461802e-04, 1.744315950521636e-02, 5.120404635841683e-03, 3.796007327609031e+01, 2.962456010604166e-01
22, 5.642930530440520e+00, 5.352202629500000e-08, 1.760299963442717e-04, 1.744145458353906e-02, 5.144431943747318e-03, 3.794896383911564e+01, 2.926494818305989e-01
23, 4.750481074120650e+00, 5.352202629500000e-08, 1.759843173448452e-04, 1.749139162871935e-02, 5.120026874336898e-03, 3.794108686539919e+01, 2.880806918794507e-01
24, 4.028891933275240e+00, 5.352202629500000e-08, 1.760096177311114e-04, 1.752180528223647e-02, 5.014291872309189e-03, 3.794804198520357e+01, 2.826116380892915e-01
25, 3.445451734506840e+00, 5.352202629500000e-08, 1.759475208515709e-04, 1.743591238562504e-02, 4.901330921573014e-03, 3.792260909471054e+01, 2.765152502016013e-01
26, 2.973711728635770e+00, 5.352202629500000e-08, 1.761064892158848e-04, 1.714077026267061e-02, 4.913878699852437e-03, 3.793259492582992e+01, 2.718900073418165e-01
27, 2.592286805209170e+00, 5.352202629500000e-08, 1.757902152955423e-04, 1.729005017921144e-02, 5.694521235982456e-03, 3.789335168815688e+01, 2.751101285567139e-01
28, 2.283886053947150e+00, 5.352202629500000e-08, 1.750004083873187e-04, 1.873365094659317e-02, 5.644730745357894e-03, 3.790312361222347e+01, 3.068521081647479e-01
29, 2.034528926141940e+00, 5.352202629500000e-08, 1.750282109358276e-04, 1.778744086096944e-02, 1.780278676491770e-03, 3.793277220855154e+01, 3.897411855506079e-01
30, 1.832911462718730e+00, 5.352202629500000e-08, 1.755841520583508e-04, 1.152949324014865e-02, -1.540465767905545e-04, 3.758410586785607e+01, 4.230564925862146e-01
31, 1.669893858549960e+00, 5.352202629500000e-08, 1.764949959413812e-04, 1.033495544232211e-02, 5.644753834405148e-03, 3.756958561488928e+01, 2.785739184771099e-01
32, 1.538086133079550e+00, 5.352202629500000e-08, 1.758995646962324e-04, 1.330253324341943e-02, 1.015619911557597e-02, 3.773487177209952e+01, 2.090525078005270e-01
33, 1.431513124708660e+00, 5.352202629500000e-08, 1.741119463985293e-04, 1.576657510300526e-02, 1.125482086680829e-02, 3.755227296543433e+01, 1.885744323772031e-01
34, 1.345343622331700e+00, 5.352202629500000e-08, 1.721385308319509e-04, 1.860649407622013e-02, 1.192229316241559e-02, 3.733634727062687e+01, 1.731167196503004e-01
35, 1.275671354903060e+00, 5.352202629500000e-08, 1.703587694855389e-04, 2.087331134954384e-02, 1.058549834687384e-02, 3.711184278515329e+01, 1.663755623459766e-01
36, 1.219337910763940e+00, 5.352202629500000e-08, 1.694699267433595e-04, 2.105974880240054e-02, 7.729413550449168e-03, 3.692357331442643e+01, 1.719759769674714e-01
37, 1.173789559236190e+00, 5.352202629500000e-08, 1.693701147124046e-04, 1.877690262607042e-02, 4.700737793493482e-03, 3.674023319373480e+01, 1.819018729848746e-01
38, 1.136961483861060e+00, 5.352202629500000e-08, 1.697046753480462e-04, 1.569229387781764e-02, 2.841104393224902e-03, 3.662821270693913e+01, 1.814579820329905e-01
39, 1.107184179296940e+00, 5.352202629500000e-08, 1.702236827019259e-04, 1.302144827065995e-02, 1.846594793354877e-03, 3.660123356059773e+01, 1.691490003595528e-01
40, 1.083107768621840e+00, 5.352202629500000e-08, 1.704738481437622e-04, 1.077845358675673e-02, 1.424128747548648e-03, 3.655694515046542e+01, 1.513893435311145e-01
41, 1.063640810162010e+00, 5.352202629500000e-08, 1.706569883302594e-04, 8.899364616369846e-03, 1.168987217833229e-03, 3.651972244281205e+01, 1.325206668113500e-01
42, 1.047900819812490e+00, 5.352202629500000e-08, 1.706222431380616e-04, 7.306076569799321e-03, 1.084719818946541e-03, 3.645576126235770e+01, 1.141082188422844e-01
43, 1.035174265907630e+00, 5.352202629500000e-08, 1.705540378700417e-04, 5.976793745174442e-03, 1.022928961135639e-03, 3.639885824769486e+01, 9.664499788004076e-02
44, 1.024884223112370e+00, 5.352202629500000e-08, 1.703701384723374e-04, 4.824158268629816e-03, 9.667964392760011e-04, 3.632813604350589e+01, 7.989295085872208e-02
45, 1.016564219007590e+00, 5.352202629500000e-08, 1.701593452487000e-04, 3.802767673027543e-03, 8.573989363164486e-04, 3.625948354774175e+01, 6.340982921475409e-02
46, 1.009837087771990e+00, 5.352202629500000e-08, 1.699184714127744e-04, 2.788513445031476e-03, 7.259998063217472e-04, 3.618985911208764e+01, 4.662926666237337e-02
47, 1.004397872347220e+00, 5.352202629500000e-08, 1.694281273871932e-04, 1.816997005270345e-03, 4.004400032322827e-04, 3.607131446697637e+01, 2.840263841574278e-02
48, 1.000000000000000e+00, 5.352202629500000e-08, 1.693120374837902e-04, 0.000000000000000e+00, 0.000000000000000e+00, 3.603640444964737e+01, 0.000000000000000e+00
49, 9.957820729228830e-01, -5.967886532841323e-04, 1.697181793437136e-04, 0.000000000000000e+00, 0.000000000000000e+00, 3.618633057573570e+01, 0.000000000000000e+00
50, 9.909241437988340e-01, -1.280289614488857e-03, 1.697572550200546e-04, 0.000000000000000e+00, 0.000000000000000e+00, 3.622345657904824e+01, 0.000000000000000e+00
51, 9.853368952903420e-01, -2.061293361678059e-03, 1.697523031399180e-04, 0.000000000000000e+00, 0.000000000000000e+00, 3.623836516839106e+01, 0.000000000000000e+00
52, 9.789211302792580e-01, -2.951446198418808e-03, 1.697512319232918e-04, 0.000000000000000e+00, 0.000000000000000e+00, 3.624817769495599e+01, 0.000000000000000e+00
53, 9.715675460812661e-01, -3.963073044857662e-03, 1.697751635674567e-04, 0.000000000000000e+00, 0.000000000000000e+00, 3.626002313896389e+01, 0.000000000000000e+00
54, 9.631568360186920e-01, -5.108981458577545e-03, 1.698126973726911e-04, 0.000000000000000e+00, 0.000000000000000e+00, 3.627274795436784e+01, 0.000000000000000e+00
55, 9.535602429161220e-01, -6.402177880090121e-03, 1.698784298097029e-04, 0.000000000000000e+00, 0.000000000000000e+00, 3.628991323917639e+01, 0.000000000000000e+00
56, 9.426407105822270e-01, -7.855481327107042e-03, 1.699561486999789e-04, 0.000000000000000e+00, 0.000000000000000e+00, 3.630839252022696e+01, 0.000000000000000e+00
57, 9.302547962764830e-01, -9.481022247350132e-03, 1.700598309559851e-04, 0.000000000000000e+00, 0.000000000000000e+00, 3.633138582420343e+01, 0.000000000000000e+00
58, 9.162555145009680e-01, -1.128961886009035e-02, 1.701733882930930e-04, 0.000000000000000e+00, 0.000000000000000e+00, 3.635577780590474e+01, 0.000000000000000e+00
59, 9.004962734807360e-01, -1.329003047580013e-02, 1.703093814876410e-04, 0.000000000000000e+00, 0.000000000000000e+00, 3.638449471741483e+01, 0.000000000000000e+00
60, 8.828360320456839e-01, -1.548809659764239e-02, 1.704531251946930e-04, 0.000000000000000e+00, 0.000000000000000e+00, 3.641462052304658e+01, 0.000000000000000e+00
61, 8.631457374960591e-01, -1.788578165295289e-02, 1.706160286509912e-04, 0.000000000000000e+00, 0.000000000000000e+00, 3.644866358192367e+01, 0.000000000000000e+00
62, 8.413159970120960e-01, -2.048015683562499e-02, 1.707849845927199e-04, 0.000000000000000e+00, 0.000000000000000e+00, 3.648386608346334e+01, 0.000000000000000e+00
63, 8.172657826166300e-01, -2.326236201353585e-02, 1.709713044325481e-04, 0.000000000000000e+00, 0.000000000000000e+00, 3.652263019372857e+01, 0.000000000000000e+00
64, 7.909517772165610e-01, -2.621660130830753e-02, 1.711632005753945e-04, 0.000000000000000e+00, 0.000000000000000e+00, 3.656248529564674e+01, 0.000000000000000e+00
65, 7.623777524675190e-01, -2.931923744885270e-02, 1.713701772225619e-04, 0.000000000000000e+00, 0.000000000000000e+00, 3.660551021909779e+01, 0.000000000000000e+00
66, 7.316031585245610e-01, -3.253806414443636e-02, 1.715827395823019e-04, 0.000000000000000e+00, 0.000000000000000e+00, 3.664976957892268e+01, 0.000000000000000e+00
67, 6.987499446352849e-01, -3.583185629664898e-02, 1.718088284471346e-04, 0.000000000000000e+00, 0.000000000000000e+00, 3.669705500709613e+01, 0.000000000000000e+00
68, 6.640065698311099e-01, -3.915032464739417e-02, 1.720405809992228e-04, 0.000000000000000e+00, 0.000000000000000e+00, 3.674576591728805e+01, 0.000000000000000e+00
69, 6.276282525902900e-01, -4.243462858861940e-02, 1.722859174453777e-04, 0.000000000000000e+00, 0.000000000000000e+00, 3.679769016409491e+01, 0.000000000000000e+00
70, 5.899327756923080e-01, -4.561861289428874e-02, 1.725388416715684e-04, 0.000000000000000e+00, 0.000000000000000e+00, 3.685156523605672e+01, 0.000000000000000e+00
71, 5.512916003363530e-01, -4.863090808605761e-02, 1.728073168792751e-04, 0.000000000000000e+00, 0.000000000000000e+00, 3.690915688474726e+01, 0.000000000000000e+00
72, 5.121166001065770e-01, -5.139794887290158e-02, 1.730878976401518e-04, 0.000000000000000e+00, 0.000000000000000e+00, 3.696968040112447e+01, 0.000000000000000e+00
73, 4.728433082391680e-01, -5.384781416072871e-02, 1.733880730813916e-04, 0.000000000000000e+00, 0.000000000000000e+00, 3.703476964707144e+01, 0.000000000000000e+00
74, 4.339120676130220e-01, -5.591460064650605e-02, 1.737069709358556e-04, 0.000000000000000e+00, 0.000000000000000e+00, 3.710414920656993e+01, 0.000000000000000e+00
75, 3.957487779587870e-01, -5.754285488135374e-02, 1.740509175580706e-04, 0.000000000000000e+00, 0.000000000000000e+00, 3.717920402833887e+01, 0.000000000000000e+00
76, 3.587469844042950e-01, -5.869148183384367e-02, 1.744207505449364e-04, 0.000000000000000e+00, 0.000000000000000e+00, 3.726004794209764e+01, 0.000000000000000e+00
77, 3.232528390902350e-01, -5.933656107664884e-02, 1.748204083169081e-04, 0.000000000000000e+00, 0.000000000000000e+00, 3.734759167939364e+01, 0.000000000000000e+00
78, 2.895540445181870e-01, -5.947265120547269e-02, 1.752510552469629e-04, 0.000000000000000e+00, 0.000000000000000e+00, 3.744207948274412e+01, 0.000000000000000e+00
79, 2.578733448481230e-01, -5.911241796041434e-02, 1.757137033249403e-04, 0.000000000000000e+00, 0.000000000000000e+00, 3.754382883587745e+01, 0.000000000000000e+00
80, 2.283665749856950e-01, -5.828472232042683e-02, 1.762089187051292e-04, 0.000000000000000e+00, 0.000000000000000e+00, 3.765299743468417e+01, 0.000000000000000e+00
81, 2.011247989315330e-01, -5.703150512358030e-02, 1.767346297907653e-04, 0.000000000000000e+00, 0.000000000000000e+00, 3.776922921012816e+01, 0.000000000000000e+00
82, 1.761797307773510e-01, -5.540399685008031e-02, 1.772909965600438e-04, 0.000000000000000e+00, 0.000000000000000e+00, 3.789257564691898e+01, 0.000000000000000e+00
83, 1.535114573767690e-01, -5.345875993105773e-02, 1.778737114820315e-04, 0.000000000000000e+00, 0.000000000000000e+00, 3.802213987307090e+01, 0.000000000000000e+00
84, 1.330574640378200e-01, -5.125402533974487e-02, 1.784815041042676e-04, 0.000000000000000e+00, 0.000000000000000e+00, 3.815761857114990e+01, 0.000000000000000e+00
85, 1.147220644565820e-01, -4.884662296676224e-02, 1.791091799083733e-04, 0.000000000000000e+00, 0.000000000000000e+00, 3.829786793618207e+01, 0.000000000000000e+00
86, 9.838551560343448e-02, -4.628967359474944e-02, 1.797527284833926e-04, 0.000000000000000e+00, 0.000000000000000e+00, 3.844196241117275e+01, 0.000000000000000e+00
87, 8.391230598462590e-02, -4.363106518129783e-02, 1.804055694767828e-04, 0.000000000000000e+00, 0.000000000000000e+00, 3.858842362911782e+01, 0.000000000000000e+00
88, 7.115831019240228e-02, -4.091264364521334e-02, 1.810610593795922e-04, 0.000000000000000e+00, 0.000000000000000e+00, 3.873573124609364e+01, 0.000000000000000e+00
89, 5.997667081241873e-02, -3.816999333835450e-02, 1.817092814571340e-04, 0.000000000000000e+00, 0.000000000000000e+00, 3.888164193621466e+01, 0.000000000000000e+00
90, 5.022241269090757e-02, -3.543266689255811e-02, 1.823389872919492e-04, 0.000000000000000e+00, 0.000000000000000e+00, 3.902359061161801e+01, 0.000000000000000e+00
91, 4.175587666437301e-02, -3.272472343659386e-02, 1.829356027744623e-04, 0.000000000000000e+00, 0.000000000000000e+00, 3.915825314673263e+01, 0.000000000000000e+00
92, 3.444508613221498e-02, -3.006547322461565e-02, 1.834815149109779e-04, 0.000000000000000e+00, 0.000000000000000e+00, 3.928159023335795e+01, 0.000000000000000e+00
93, 2.816723852735188e-02, -2.747032780714164e-02, 1.839538760547230e-04, 0.000000000000000e+00, 0.000000000000000e+00, 3.938836439401052e+01, 0.000000000000000e+00
94, 2.280943840223927e-02, -2.495170224279449e-02, 1.843266455689862e-04, 0.000000000000000e+00, 0.000000000000000e+00, 3.947256517765891e+01, 0.000000000000000e+00
95, 1.826885694347390e-02, -2.251990184115951e-02, 1.845687067830242e-04, 0.000000000000000e+00, 0.000000000000000e+00, 3.952700970208490e+01, 0.000000000000000e+00
96, 1.445220176924677e-02, -2.018402699144572e-02, 1.846458871549013e-04, 0.000000000000000e+00, 0.000000000000000e+00, 3.954379940489404e+01, 0.000000000000000e+00
97, 1.127516040522520e-02, -1.795262732939143e-02, 1.845234842081841e-04, 0.000000000000000e+00, 0.000000000000000e+00, 3.951491724047386e+01, 0.000000000000000e+00
98, 8.660977828664375e-03, -1.583432528077909e-02, 1.841711828580156e-04, 0.000000000000000e+00, 0.000000000000000e+00, 3.943338074465887e+01, 0.000000000000000e+00
99, 6.539262456987240e-03, -1.383809857154541e-02, 1.835694862720268e-04, 0.000000000000000e+00, 0.000000000000000e+00, 3.929475533720363e+01, 0.000000000000000e+00
100, 4.844550253733529e-03, -1.197282395717829e-02, 1.827183089837709e-04, 0.000000000000000e+00, 0.000000000000000e+00, 3.909912588952885e+01, 0.000000000000000e+00
101, 3.515319859016383e-03, -1.024671366603845e-02, 1.816419508471663e-04, 0.000000000000000e+00, 0.000000000000000e+00, 3.885222820554752e+01, 0.000000000000000e+00
102, 2.493434235242850e-03, -8.666019672232862e-03, 1.803893934886665e-04, 0.000000000000000e+00, 0.000000000000000e+00, 3.856545929659601e+01, 0.000000000000000e+00
103, 1.724623063799526e-03, -7.234076671312168e-03, 1.790274939905924e-04, 0.000000000000000e+00, 0.000000000000000e+00, 3.825424965043467e+01, 0.000000000000000e+00
104, 1.159193085740397e-03, -5.950300022223502e-03, 1.776283728972364e-04, 0.000000000000000e+00, 0.000000000000000e+00, 3.793513261244883e+01, 0.000000000000000e+00
105, 7.531893324873004e-04, -4.810177416320721e-03, 1.762602676120729e-04, 0.000000000000000e+00, 0.000000000000000e+00, 3.762358519486477e+01, 0.000000000000000e+00
106, 4.691284473891598e-04, -3.805771251873249e-03, 1.749751008143620e-04, 0.000000000000000e+00, 0.000000000000000e+00, 3.733127280277810e+01, 0.000000000000000e+00
107, 2.762360161117116e-04, -2.926719015761365e-03, 1.738064849144277e-04, 0.000000000000000e+00, 0.000000000000000e+00, 3.706563935661154e+01, 0.000000000000000e+00
108, 1.500786146402364e-04, -2.161299885350869e-03, 1.727701459042296e-04, 0.000000000000000e+00, 0.000000000000000e+00, 3.683007613416202e+01, 0.000000000000000e+00
109, 7.180327325045228e-05, -1.497376923399532e-03, 1.718744596601121e-04, 0.000000000000000e+00, 0.000000000000000e+00, 3.662625630846385e+01, 0.000000000000000e+00
110, 2.721275945542452e-05, -9.231024271926752e-04, 1.711129207266264e-04, 0.000000000000000e+00, 0.000000000000000e+00, 3.645260401974254e+01, 0.000000000000000e+00
111, 5.818606343871792e-06, -4.273592490875973e-04, 1.704678437333259e-04, 0.000000000000000e+00, 0.000000000000000e+00, 3.630513425798697e+01, 0.000000000000000e+00
112, 0.000000000000000e+00, 0.000000000000000e+00, 1.699902522135556e-04, 0.000000000000000e+00, 0.000000000000000e+00, 3.619447845341389e+01, 0.000000000000000e+00
113, 5.818606344095651e-06, 4.273592490958099e-04, 1.707156258752871e-04, 0.000000000000000e+00, 0.000000000000000e+00, 3.633878299779511e+01, 0.000000000000000e+00
114, 2.721275945665566e-05, 9.231024272135111e-04, 1.693100834946791e-04, 0.000000000000000e+00, 0.000000000000000e+00, 3.603064895332245e+01, 0.000000000000000e+00
115, 7.180327325368544e-05, 1.497376923433127e-03, 1.672697283588721e-04, 0.000000000000000e+00, 0.000000000000000e+00, 3.558655502462581e+01, 0.000000000000000e+00
116, 1.500786146456709e-04, 2.161299885389794e-03, 1.657531439085220e-04, 0.000000000000000e+00, 0.000000000000000e+00, 3.525275571329725e+01, 0.000000000000000e+00
117, 2.762360161229505e-04, 2.926719015820480e-03, 1.646416951285722e-04, 0.000000000000000e+00, 0.000000000000000e+00, 3.500392275363416e+01, 0.000000000000000e+00
118, 4.691284474090552e-04, 3.805771251953191e-03, 1.636158523605933e-04, 0.000000000000000e+00, 0.000000000000000e+00, 3.477223769721785e+01, 0.000000000000000e+00
119, 7.531893325176259e-04, 4.810177416416397e-03, 1.624286148667877e-04, 0.000000000000000e+00, 0.000000000000000e+00, 3.450560121665212e+01, 0.000000000000000e+00
120, 1.159193085789885e-03, 5.950300022348630e-03, 1.611901335908000e-04, 0.000000000000000e+00, 0.000000000000000e+00, 3.422801605867442e+01, 0.000000000000000e+00
