"PointID","x","y","Density","Momentum_x","Momentum_y","Energy","Nu_Tilde"
0, 5.010000078023450e+02, 5.352202629500000e-08, 1.759278762672303e-04, 1.736971599956251e-02, 5.295089116782417e-03, 3.791730578642638e+01, 3.086475912611332e-01
1, 4.052709646366250e+02, 5.352202629500000e-08, 1.760708962850693e-04, 1.733547094125336e-02, 5.299408244681944e-03, 3.795504119789938e+01, 3.088248241173476e-01
2, 3.278693397908290e+02, 5.352202629500000e-08, 1.760756291364106e-04, 1.733385321779381e-02, 5.299541866389635e-03, 3.795647088758112e+01, 3.088310395760684e-01
3, 2.652863312215480e+02, 5.352202629500000e-08, 1.760755846116284e-04, 1.733401217578148e-02, 5.299551244574238e-03, 3.795640537984119e+01, 3.088300483740628e-01
4, 2.146849004455700e+02, 5.352202629500000e-08, 1.760756205284047e-04, 1.733405364352804e-02, 5.299626422957440e-03, 3.795641736220712e+01, 3.088276647447524e-01
5, 1.737711627536290e+02, 5.352202629500000e-08, 1.760757449910217e-04, 1.733415802590899e-02, 5.300017603041388e-03, 3.795647603421936e+01, 3.088237706614957e-01
6, 1.406903998926780e+02, 5.352202629500000e-08, 1.760758322005986e-04, 1.733437916994259e-02, 5.301313343304664e-03, 3.795656163662613e+01, 3.088166557067356e-01
7, 1.139429812211730e+02, 5.352202629500000e-08, 1.760754344878017e-04, 1.733468764456690e-02, 5.304039009240403e-03, 3.795655667446682e+01, 3.088023828881833e-01
8, 9.231638184086459e+01, 5.352202629500000e-08, 1.760746890442401e-04, 1.733554122463451e-02, 5.308075630589727e-03, 3.795654949380967e+01, 3.087744301426411e-01
9, 7.483021592330550e+01, 5.352202629500000e-08, 1.760747696991442e-04, 1.733895920092558e-02, 5.314126561825109e-03, 3.795709744816492e+01, 3.087197625545867e-01
10, 6.069179345940150e+01, 5.352202629500000e-08, 1.760746522088163e-04, 1.734893697487134e-02, 5.323775386354384e-03, 3.795833257474050e+01, 3.086077734655972e-01
11, 4.926018571243980e+01, 5.352202629500000e-08, 1.760728362453961e-04, 1.737177918723492e-02, 5.331380569520813e-03, 3.796030867473408e+01, 3.083963151947277e-01
12, 4.001717037504760e+01, 5.352202629500000e-08, 1.760726011604124e-04, 1.740691557685788e-02, 5.319771876561668e-03, 3.796337285332157e+01, 3.080425463749326e-01
13, 3.254373930407910e+01, 5.352202629500000e-08, 1.760738388997719e-04, 1.742775017300648e-02, 5.277668359973453e-03, 3.796449202533377e+01, 3.075466303025376e-01
14, 2.650110387248250e+01, 5.352202629500000e-08, 1.760727955935813e-04, 1.740968035667169e-02, 5.235385384406242e-03, 3.796112257889239e+01, 3.068944207378477e-01
15, 2.161533686500620e+01, 5.352202629500000e-08, 1.760696675669825e-04, 1.738679350922335e-02, 5.235447137412497e-03, 3.795800613809322e+01, 3.061577972515704e-01
16, 1.766495469789320e+01, 5.352202629500000e-08, 1.760694180530179e-04, 1.739427421901834e-02, 5.241231720378259e-03, 3.795888351847223e+01, 3.052775248902748e-01
17, 1.447087703467990e+01, 5.352202629500000e-08, 1.760734512446725e-04, 1.739970691085855e-02, 5.225224423659428e-03, 3.795977846609603e+01, 3.042260752607057e-01
18, 1.188830864330480e+01, 5.352202629500000e-08, 1.760572166189979e-04, 1.740820338464454e-02, 5.229051895558943e-03, 3.795630666140068e+01, 3.028896914763945e-01
19, 9.800175479560719e+00, 5.352202629500000e-08, 1.760540776687514e-04, 1.744426235141507e-02, 5.206637474206107e-03, 3.795826214677239e+01, 3.011846290251611e-01
20, 8.111817438747661e+00, 5.352202629500000e-08, 1.760599278858621e-04, 1.745754553258452e-02, 5.147069574551812e-03, 3.795971566116194e+01, 2.990129595478894e-01
21, 6.746697185177710e+00, 5.352202629500000e-08, 1.760686018770363e-04, 1.744195068479227e-02, 5.122192588091759e-03, 3.795952527859762e+01, 2.962425639262771e-01
22, 5.642930530440520e+00, 5.352202629500000e-08, 1.760249749819513e-04, 1.744031391030678e-02, 5.146063114266118e-03, 3.794749267636844e+01, 2.926430988594670e-01
23, 4.750481074120650e+00, 5.352202629500000e-08, 1.759834540464448e-04, 1.749184288594472e-02, 5.116477652535508e-03, 3.794083599487831e+01, 2.880787410222130e-01
24, 4.028891933275240e+00, 5.352202629500000e-08, 1.760112901556167e-04, 1.751643918492258e-02, 5.007859519229454e-03, 3.794771800441634e+01, 2.826125941404949e-01
25, 3.445451734506840e+00, 5.352202629500000e-08, 1.759492466401930e-04, 1.741824350205708e-02, 4.902653078618101e-03, 3.792110284536587e+01, 2.766035004263668e-01
26, 2.973711728635770e+00, 5.352202629500000e-08, 1.760958357650872e-04, 1.714644756424873e-02, 4.965944441681697e-03, 3.793112853227649e+01, 2.724122248866751e-01
27, 2.592286805209170e+00, 5.352202629500000e-08, 1.757696930960009e-04, 1.742180512651811e-02, 5.709825396481450e-03, 3.790501513739047e+01, 2.774034396721763e-01
28, 2.283886053947150e+00, 5.352202629500000e-08, 1.749543639496861e-04, 1.878478156404972e-02, 5.336941582905214e-03, 3.790088677850220e+01, 3.125098521591261e-01
29, 2.034528926141940e+00, 5.352202629500000e-08, 1.752848341884215e-04, 1.716975284899466e-02, 1.314818811862521e-03, 3.794418003549799e+01, 3.940007534820172e-01
30, 1.832911462718730e+00, 5.352202629500000e-08, 1.756181681700275e-04, 1.110736936943285e-02, 5.705734360209089e-04, 3.752289396441294e+01, 4.017390790541997e-01
31, 1.669893858549960e+00, 5.352202629500000e-08, 1.765238640170368e-04, 1.099578454775190e-02, 6.694315434417308e-03, 3.761859103610045e+01, 2.574076056258581e-01
32, 1.538086133079550e+00, 5.352202629500000e-08, 1.756342493223817e-04, 1.394462269293638e-02, 1.040551269197243e-02, 3.773585162611982e+01, 2.071287009505371e-01
33, 1.431513124708660e+00, 5.352202629500000e-08, 1.737877370894147e-04, 1.647423994602757e-02, 1.132792713380974e-02, 3.753356857806723e+01, 1.874625881906221e-01
34, 1.345343622331700e+00, 5.352202629500000e-08, 1.718955297781652e-04, 1.937181288596536e-02, 1.163621901324776e-02, 3.734297956366461e+01, 1.734121750790876e-01
35, 1.275671354903060e+00, 5.352202629500000e-08, 1.702686204543955e-04, 2.131268228703101e-02, 9.760873034174687e-03, 3.712572570579788e+01, 1.708422785922669e-01
36, 1.219337910763940e+00, 5.352202629500000e-08, 1.698273426385058e-04, 2.078667288282520e-02, 6.573915570641371e-03, 3.698685668530771e+01, 1.821944282259158e-01
37, 1.173789559236190e+00, 5.352202629500000e-08, 1.698788311994301e-04, 1.790922573782930e-02, 3.761918096445362e-03, 3.680463494224146e+01, 1.938388300306108e-01
38, 1.136961483861060e+00, 5.352202629500000e-08, 1.704551495117382e-04, 1.477483490931283e-02, 2.268850671682798e-03, 3.675081397744029e+01, 1.905226250875656e-01
39, 1.107184179296940e+00, 5.352202629500000e-08, 1.708515229954116e-04, 1.217739342598258e-02, 1.600143078012748e-03, 3.670792683971708e+01, 1.754394500044520e-01
40, 1.083107768621840e+00, 5.352202629500000e-08, 1.710821963329696e-04, 1.003033737702010e-02, 1.350005293510738e-03, 3.666562653222108e+01, 1.562367273202030e-01
41, 1.063640810162010e+00, 5.352202629500000e-08, 1.711180132123540e-04, 8.231763183309324e-03, 1.233994342252896e-03, 3.660078799353465e+01, 1.365614624916560e-01
42, 1.047900819812490e+00, 5.352202629500000e-08, 1.710203526116766e-04, 6.745332631385486e-03, 1.233823725061276e-03, 3.652732593120385e+01, 1.176899978259972e-01
43, 1.035174265907630e+00, 5.352202629500000e-08, 1.708465852214013e-04, 5.508376837207988e-03, 1.216651159613088e-03, 3.645045808392414e+01, 9.984170955689749e-02
44, 1.024884223112370e+00, 5.352202629500000e-08, 1.706132726243114e-04, 4.449452341325310e-03, 1.178055079728358e-03, 3.637119777658883e+01, 8.268494305139688e-02
45, 1.016564219007590e+00, 5.352202629500000e-08, 1.703476657065750e-04, 3.510745120430815e-03, 1.063825566362526e-03, 3.629209409065936e+01, 6.574232598358898e-02
46, 1.009837087771990e+00, 5.352202629500000e-08, 1.700877113736192e-04, 2.580714157173585e-03, 9.087024691447322e-04, 3.621925902743882e+01, 4.839787011178874e-02
47, 1.004397872347220e+00, 5.352202629500000e-08, 1.696140703283992e-04, 1.683177159490995e-03, 5.157567958377510e-04, 3.610453479911396e+01, 2.942434517013847e-02
48, 1.000000000000000e+00, 5.352202629500000e-08, 1.694955102350345e-04, 0.000000000000000e+00, 0.000000000000000e+00, 3.606988204211245e+01, 0.000000000000000e+00
49, 9.957820729228830e-01, -5.967886532841323e-04, 1.700170753061323e-04, 0.000000000000000e+00, 0.000000000000000e+00, 3.625095582439640e+01, 0.000000000000000e+00
50, 9.909241437988340e-01, -1.280289614488857e-03, 1.700988175896104e-04, 0.000000000000000e+00, 0.000000000000000e+00, 3.630033665226674e+01, 0.000000000000000e+00
51, 9.853368952903420e-01, -2.061293361678059e-03, 1.700586719739864e-04, 0.000000000000000e+00, 0.000000000000000e+00, 3.630942365533298e+01, 0.000000000000000e+00
52, 9.789211302792580e-01, -2.951446198418808e-03, 1.700231770128960e-04, 0.000000000000000e+00, 0.000000000000000e+00, 3.631283152413803e+01, 0.000000000000000e+00
53, 9.715675460812661e-01, -3.963073044857662e-03, 1.699970218563949e-04, 0.000000000000000e+00, 0.000000000000000e+00, 3.631451205682917e+01, 0.000000000000000e+00
54, 9.631568360186920e-01, -5.108981458577545e-03, 1.700044731074946e-04, 0.000000000000000e+00, 0.000000000000000e+00, 3.632112693399669e+01, 0.000000000000000e+00
55, 9.535602429161220e-01, -6.402177880090121e-03, 1.700484682494269e-04, 0.000000000000000e+00, 0.000000000000000e+00, 3.633384668496662e+01, 0.000000000000000e+00
56, 9.426407105822270e-01, -7.855481327107042e-03, 1.701211702670383e-04, 0.000000000000000e+00, 0.000000000000000e+00, 3.635145218372809e+01, 0.000000000000000e+00
57, 9.302547962764830e-01, -9.481022247350132e-03, 1.702222435617115e-04, 0.000000000000000e+00, 0.000000000000000e+00, 3.637409532493272e+01, 0.000000000000000e+00
58, 9.162555145009680e-01, -1.128961886009035e-02, 1.703374035740679e-04, 0.000000000000000e+00, 0.000000000000000e+00, 3.639907159996573e+01, 0.000000000000000e+00
59, 9.004962734807360e-01, -1.329003047580013e-02, 1.704713574044648e-04, 0.000000000000000e+00, 0.000000000000000e+00, 3.642755842692909e+01, 0.000000000000000e+00
60, 8.828360320456839e-01, -1.548809659764239e-02, 1.706134292503407e-04, 0.000000000000000e+00, 0.000000000000000e+00, 3.645749134601276e+01, 0.000000000000000e+00
61, 8.631457374960591e-01, -1.788578165295289e-02, 1.707716262713579e-04, 0.000000000000000e+00, 0.000000000000000e+00, 3.649059496738287e+01, 0.000000000000000e+00
62, 8.413159970120960e-01, -2.048015683562499e-02, 1.709366745573344e-04, 0.000000000000000e+00, 0.000000000000000e+00, 3.652496410381639e+01, 0.000000000000000e+00
63, 8.172657826166300e-01, -2.326236201353585e-02, 1.711172047317905e-04, 0.000000000000000e+00, 0.000000000000000e+00, 3.656240423910284e+01, 0.000000000000000e+00
64, 7.909517772165610e-01, -2.621660130830753e-02, 1.713041414992267e-04, 0.000000000000000e+00, 0.000000000000000e+00, 3.660107409747581e+01, 0.000000000000000e+00
65, 7.623777524675190e-01, -2.931923744885270e-02, 1.715046878739206e-04, 0.000000000000000e+00, 0.000000000000000e+00, 3.664253319672792e+01, 0.000000000000000e+00
66, 7.316031585245610e-01, -3.253806414443636e-02, 1.717114565026714e-04, 0.000000000000000e+00, 0.000000000000000e+00, 3.668534044995754e+01, 0.000000000000000e+00
67, 6.987499446352849e-01, -3.583185629664898e-02, 1.719306157915519e-04, 0.000000000000000e+00, 0.000000000000000e+00, 3.673086832432342e+01, 0.000000000000000e+00
68, 6.640065698311099e-01, -3.915032464739417e-02, 1.721560129323487e-04, 0.000000000000000e+00, 0.000000000000000e+00, 3.677792384492516e+01, 0.000000000000000e+00
69, 6.276282525902900e-01, -4.243462858861940e-02, 1.723942897772361e-04, 0.000000000000000e+00, 0.000000000000000e+00, 3.682797556544359e+01, 0.000000000000000e+00
70, 5.899327756923080e-01, -4.561861289428874e-02, 1.726407261534222e-04, 0.000000000000000e+00, 0.000000000000000e+00, 3.688008083376781e+01, 0.000000000000000e+00
71, 5.512916003363530e-01, -4.863090808605761e-02, 1.729025410666171e-04, 0.000000000000000e+00, 0.000000000000000e+00, 3.693580377478987e+01, 0.000000000000000e+00
72, 5.121166001065770e-01, -5.139794887290158e-02, 1.731770511503890e-04, 0.000000000000000e+00, 0.000000000000000e+00, 3.699457192161698e+01, 0.000000000000000e+00
73, 4.728433082391680e-01, -5.384781416072871e-02, 1.734714589591483e-04, 0.000000000000000e+00, 0.000000000000000e+00, 3.705792626343755e+01, 0.000000000000000e+00
74, 4.339120676130220e-01, -5.591460064650605e-02, 1.737850012441614e-04, 0.000000000000000e+00, 0.000000000000000e+00, 3.712566279065469e+01, 0.000000000000000e+00
75, 3.957487779587870e-01, -5.754285488135374e-02, 1.741240508621832e-04, 0.000000000000000e+00, 0.000000000000000e+00, 3.719916303028361e+01, 0.000000000000000e+00
76, 3.587469844042950e-01, -5.869148183384367e-02, 1.744890625198659e-04, 0.000000000000000e+00, 0.000000000000000e+00, 3.727850383300849e+01, 0.000000000000000e+00
77, 3.232528390902350e-01, -5.933656107664884e-02, 1.748842854921313e-04, 0.000000000000000e+00, 0.000000000000000e+00, 3.736466305448308e+01, 0.000000000000000e+00
78, 2.895540445181870e-01, -5.947265120547269e-02, 1.753102813267371e-04, 0.000000000000000e+00, 0.000000000000000e+00, 3.745778807186728e+01, 0.000000000000000e+00
79, 2.578733448481230e-01, -5.911241796041434e-02, 1.757685323612566e-04, 0.000000000000000e+00, 0.000000000000000e+00, 3.755829581718355e+01, 0.000000000000000e+00
80, 2.283665749856950e-01, -5.828472232042683e-02, 1.762590476793881e-04, 0.000000000000000e+00, 0.000000000000000e+00, 3.766623446089991e+01, 0.000000000000000e+00
81, 2.011247989315330e-01, -5.703150512358030e-02, 1.767803620122376e-04, 0.000000000000000e+00, 0.000000000000000e+00, 3.778136559287211e+01, 0.000000000000000e+00
82, 1.761797307773510e-01, -5.540399685008031e-02, 1.773321955173495e-04, 0.000000000000000e+00, 0.000000000000000e+00, 3.790363825151852e+01, 0.000000000000000e+00
83, 1.535114573767690e-01, -5.345875993105773e-02, 1.779107895086697e-04, 0.000000000000000e+00, 0.000000000000000e+00, 3.803225764964198e+01, 0.000000000000000e+00
84, 1.330574640378200e-01, -5.125402533974487e-02, 1.785144880920690e-04, 0.000000000000000e+00, 0.000000000000000e+00, 3.816682750163285e+01, 0.000000000000000e+00
85, 1.147220644565820e-01, -4.884662296676224e-02, 1.791385218002409e-04, 0.000000000000000e+00, 0.000000000000000e+00, 3.830628696962431e+01, 0.000000000000000e+00
86, 9.838551560343448e-02, -4.628967359474944e-02, 1.797785774732401e-04, 0.000000000000000e+00, 0.000000000000000e+00, 3.844964041361543e+01, 0.000000000000000e+00
87, 8.391230598462590e-02, -4.363106518129783e-02, 1.804283658519178e-04, 0.000000000000000e+00, 0.000000000000000e+00, 3.859546664254693e+01, 0.000000000000000e+00
88, 7.115831019240228e-02, -4.091264364521334e-02, 1.810810215554912e-04, 0.000000000000000e+00, 0.000000000000000e+00, 3.874219269447294e+01, 0.000000000000000e+00
89, 5.997667081241873e-02, -3.816999333835450e-02, 1.817267853946359e-04, 0.000000000000000e+00, 0.000000000000000e+00, 3.888760372313111e+01, 0.000000000000000e+00
90, 5.022241269090757e-02, -3.543266689255811e-02, 1.823542875964871e-04, 0.000000000000000e+00, 0.000000000000000e+00, 3.902910267227980e+01, 0.000000000000000e+00
91, 4.175587666437301e-02, -3.272472343659386e-02, 1.829490262916398e-04, 0.000000000000000e+00, 0.000000000000000e+00, 3.916337434690215e+01, 0.000000000000000e+00
92, 3.444508613221498e-02, -3.006547322461565e-02, 1.834932206902686e-04, 0.000000000000000e+00, 0.000000000000000e+00, 3.928633716583295e+01, 0.000000000000000e+00
93, 2.816723852735188e-02, -2.747032780714164e-02, 1.839639500856161e-04, 0.000000000000000e+00, 0.000000000000000e+00, 3.939273285529531e+01, 0.000000000000000e+00
94, 2.280943840223927e-02, -2.495170224279449e-02, 1.843349548853240e-04, 0.000000000000000e+00, 0.000000000000000e+00, 3.947650026638991e+01, 0.000000000000000e+00
95, 1.826885694347390e-02, -2.251990184115951e-02, 1.845750294252518e-04, 0.000000000000000e+00, 0.000000000000000e+00, 3.953043446906045e+01, 0.000000000000000e+00
96, 1.445220176924677e-02, -2.018402699144572e-02, 1.846496341856586e-04, 0.000000000000000e+00, 0.000000000000000e+00, 3.954655537984313e+01, 0.000000000000000e+00
97, 1.127516040522520e-02, -1.795262732939143e-02, 1.845237395917321e-04, 0.000000000000000e+00, 0.000000000000000e+00, 3.951677707277321e+01, 0.000000000000000e+00
98, 8.660977828664375e-03, -1.583432528077909e-02, 1.841666017792223e-04, 0.000000000000000e+00, 0.000000000000000e+00, 3.943402877044586e+01, 0.000000000000000e+00
99, 6.539262456987240e-03, -1.383809857154541e-02, 1.835585538242620e-04, 0.000000000000000e+00, 0.000000000000000e+00, 3.929384436491679e+01, 0.000000000000000e+00
100, 4.844550253733529e-03, -1.197282395717829e-02, 1.826993241596676e-04, 0.000000000000000e+00, 0.000000000000000e+00, 3.909627464966522e+01, 0.000000000000000e+00
101, 3.515319859016383e-03, -1.024671366603845e-02, 1.816134001427747e-04, 0.000000000000000e+00, 0.000000000000000e+00, 3.884710232442976e+01, 0.000000000000000e+00
102, 2.493434235242850e-03, -8.666019672232862e-03, 1.803498399143627e-04, 0.000000000000000e+00, 0.000000000000000e+00, 3.855774753179727e+01, 0.000000000000000e+00
103, 1.724623063799526e-03, -7.234076671312168e-03, 1.789760693798123e-04, 0.000000000000000e+00, 0.000000000000000e+00, 3.824376902396627e+01, 0.000000000000000e+00
104, 1.159193085740397e-03, -5.950300022223502e-03, 1.775650719314103e-04, 0.000000000000000e+00, 0.000000000000000e+00, 3.792189081112520e+01, 0.000000000000000e+00
105, 7.531893324873004e-04, -4.810177416320721e-03, 1.761850129717403e-04, 0.000000000000000e+00, 0.000000000000000e+00, 3.760758136275509e+01, 0.000000000000000e+00
106, 4.691284473891598e-04, -3.805771251873249e-03, 1.748873624659221e-04, 0.000000000000000e+00, 0.000000000000000e+00, 3.731241761831357e+01, 0.000000000000000e+00
107, 2.762360161117116e-04, -2.926719015761365e-03, 1.737054023303001e-04, 0.000000000000000e+00, 0.000000000000000e+00, 3.704378231077533e+01, 0.000000000000000e+00
108, 1.500786146402364e-04, -2.161299885350869e-03, 1.726545614977767e-04, 0.000000000000000e+00, 0.000000000000000e+00, 3.680501354754295e+01, 0.000000000000000e+00
109, 7.180327325045228e-05, -1.497376923399532e-03, 1.717420538761837e-04, 0.000000000000000e+00, 0.000000000000000e+00, 3.659754753827632e+01, 0.000000000000000e+00
110, 2.721275945542452e-05, -9.231024271926752e-04, 1.709645857154773e-04, 0.000000000000000e+00, 0.000000000000000e+00, 3.642050463808583e+01, 0.000000000000000e+00
111, 5.818606343871792e-06, -4.273592490875973e-04, 1.703331756971707e-04, 0.000000000000000e+00, 0.000000000000000e+00, 3.627602379706808e+01, 0.000000000000000e+00
112, 0.000000000000000e+00, 0.000000000000000e+00, 1.698991521000270e-04, 0.000000000000000e+00, 0.000000000000000e+00, 3.617482340835185e+01, 0.000000000000000e+00
113, 5.818606344095651e-06, 4.273592490958099e-04, 1.699319138156632e-04, 0.000000000000000e+00, 0.000000000000000e+00, 3.617220564623708e+01, 0.000000000000000e+00
114, 2.721275945665566e-05, 9.231024272135111e-04, 1.686256599408921e-04, 0.000000000000000e+00, 0.000000000000000e+00, 3.588520787200515e+01, 0.000000000000000e+00
115, 7.180327325368544e-05, 1.497376923433127e-03, 1.668411336302936e-04, 0.000000000000000e+00, 0.000000000000000e+00, 3.549550887328285e+01, 0.000000000000000e+00
116, 1.500786146456709e-04, 2.161299885389794e-03, 1.654660211642720e-04, 0.000000000000000e+00, 0.000000000000000e+00, 3.519173009875182e+01, 0.000000000000000e+00
117, 2.762360161229505e-04, 2.926719015820480e-03, 1.644299571991349e-04, 0.000000000000000e+00, 0.000000000000000e+00, 3.495884759065851e+01, 0.000000000000000e+00
118, 4.691284474090552e-04, 3.805771251953191e-03, 1.632859610639916e-04, 0.000000000000000e+00, 0.000000000000000e+00, 3.470190987385980e+01, 0.000000000000000e+00
119, 7.531893325176259e-04, 4.810177416416397e-03, 1.619937097278926e-04, 0.000000000000000e+00, 0.000000000000000e+00, 3.441273309696113e+01, 0.000000000000000e+00
120, 1.159193085789885e-03, 5.950300022348630e-03, 1.607277806184344e-04, 0.000000000000000e+00, 0.000000000000000e+00, 3.412913215372190e+01, 0.000000000000000e+00
