"PointID","x","y","Density","Momentum_x","Momentum_y","Energy","Nu_Tilde"
0, 5.010000078023450e+02, 5.352202629500000e-08, 1.759983256143556e-04, 1.735274529357297e-02, 5.297214806890749e-03, 3.793593079560024e+01, 3.087367159839030e-01
1, 4.052709646366250e+02, 5.352202629500000e-08, 1.760743107259278e-04, 1.733443374971354e-02, 5.299506541374682e-03, 3.795602409648131e+01, 3.088307404385103e-01
2, 3.278693397908290e+02, 5.352202629500000e-08, 1.760756093974067e-04, 1.733395571272925e-02, 5.299542582413122e-03, 3.795642820659974e+01, 3.088315683843001e-01
3, 2.652863312215480e+02, 5.352202629500000e-08, 1.760755724189322e-04, 1.733402095008255e-02, 5.299547327800548e-03, 3.795639931585382e+01, 3.088302802716281e-01
4, 2.146849004455700e+02, 5.352202629500000e-08, 1.760756040845769e-04, 1.733404309930688e-02, 5.299595810822314e-03, 3.795641094893320e+01, 3.088280656619050e-01
5, 1.737711627536290e+02, 5.352202629500000e-08, 1.760757172560782e-04, 1.733412799033773e-02, 5.299881474000420e-03, 3.795646090267574e+01, 3.088244813727014e-01
6, 1.406903998926780e+02, 5.352202629500000e-08, 1.760758595589999e-04, 1.733433713770169e-02, 5.300945274617511e-03, 3.795655483283105e+01, 3.088181385316952e-01
7, 1.139429812211730e+02, 5.352202629500000e-08, 1.760756075978102e-04, 1.733463653112385e-02, 5.303443921177319e-03, 3.795658408882147e+01, 3.088055415668614e-01
8, 9.231638184086459e+01, 5.352202629500000e-08, 1.760747926496880e-04, 1.733525850679265e-02, 5.307371944837598e-03, 3.795652716386377e+01, 3.087805700504591e-01
9, 7.483021592330550e+01, 5.352202629500000e-08, 1.760746342785674e-04, 1.733788339683088e-02, 5.313001558517871e-03, 3.795691741545965e+01, 3.087323293062335e-01
10, 6.069179345940150e+01, 5.352202629500000e-08, 1.760749851591163e-04, 1.734622203417088e-02, 5.322289648204331e-03, 3.795811834625306e+01, 3.086338142517945e-01
11, 4.926018571243980e+01, 5.352202629500000e-08, 1.760734303091416e-04, 1.736644007629952e-02, 5.332146569712895e-03, 3.795996607996035e+01, 3.084414451203445e-01
12, 4.001717037504760e+01, 5.352202629500000e-08, 1.760722650119990e-04, 1.740162420884568e-02, 5.326590937424483e-03, 3.796295794205518e+01, 3.081079055851978e-01
13, 3.254373930407910e+01, 5.352202629500000e-08, 1.760730022475555e-04, 1.743063734039324e-02, 5.288823755014210e-03, 3.796488852658495e+01, 3.076192692955636e-01
14, 2.650110387248250e+01, 5.352202629500000e-08, 1.760739488611526e-04, 1.742035358925268e-02, 5.238688066003724e-03, 3.796261106628833e+01, 3.069710044922390e-01
15, 2.161533686500620e+01, 5.352202629500000e-08, 1.760721268210627e-04, 1.739171413776031e-02, 5.228716919358620e-03, 3.795897118218875e+01, 3.062085891910703e-01
16, 1.766495469789320e+01, 5.352202629500000e-08, 1.760657662052952e-04, 1.739243227700499e-02, 5.239919489955324e-03, 3.795762656213984e+01, 3.052925505944057e-01
17, 1.447087703467990e+01, 5.352202629500000e-08, 1.760689285519300e-04, 1.739889932483613e-02, 5.221346632643516e-03, 3.795844722834903e+01, 3.042385146425541e-01
18, 1.188830864330480e+01, 5.352202629500000e-08, 1.760666509421590e-04, 1.739589135627668e-02, 5.222065939085267e-03, 3.795753762341486e+01, 3.029092549481637e-01
19, 9.800175479560719e+00, 5.352202629500000e-08, 1.760565579613369e-04, 1.742894702902506e-02, 5.231925696338486e-03, 3.795832501171476e+01, 3.011990344370057e-01
20, 8.111817438747661e+00, 5.352202629500000e-08, 1.760531353784678e-04, 1.747301337328660e-02, 5.189285721071183e-03, 3.796025140448350e+01, 2.990068385904835e-01
21, 6.746697185177710e+00, 5.352202629500000e-08, 1.760601451955957e-04, 1.749217959051051e-02, 5.122349928988531e-03, 3.796275634008866e+01, 2.962203784249101e-01
22, 5.642930530440520e+00, 5.352202629500000e-08, 1.760626134459693e-04, 1.745865669670362e-02, 5.087247765531181e-03, 3.795798419561036e+01, 2.926525607170276e-01
23, 4.750481074120650e+00, 5.352202629500000e-08, 1.760001618201088e-04, 1.743758285025558e-02, 5.134636130417414e-03, 3.794018838227680e+01, 2.881993338194444e-01
24, 4.028891933275240e+00, 5.352202629500000e-08, 1.759768673845875e-04, 1.753727347770807e-02, 5.141836819507551e-03, 3.794445611516094e+01, 2.829002314643463e-01
25, 3.445451734506840e+00, 5.352202629500000e-08, 1.759025924827205e-04, 1.764733494096426e-02, 5.010404822729101e-03, 3.793447568449952e+01, 2.767599431089452e-01
26, 2.973711728635770e+00, 5.352202629500000e-08, 1.760292305271217e-04, 1.743883450263510e-02, 4.681559401853529e-03, 3.793928339877490e+01, 2.708066376797019e-01
27, 2.592286805209170e+00, 5.352202629500000e-08, 1.759707398405199e-04, 1.697435261375384e-02, 5.147795830290344e-03, 3.788522539366188e+01, 2.672499141482610e-01
28, 2.283886053947150e+00, 5.352202629500000e-08, 1.754986267459422e-04, 1.802778792179449e-02, 6.172672664253406e-03, 3.793778582005562e+01, 2.814501363657619e-01
29, 2.034528926141940e+00, 5.352202629500000e-08, 1.746147378439663e-04, 1.923949493167021e-02, 3.948353421938951e-03, 3.792435648770294e+01, 3.441607319680089e-01
30, 1.832911462718730e+00, 5.352202629500000e-08, 1.756915462279842e-04, 1.457851667738060e-02, -1.099401154034958e-03, 3.790575205258732e+01, 4.361160114371825e-01
31, 1.669893858549960e+00, 5.352202629500000e-08, 1.761499230760663e-04, 9.023485743079433e-03, 1.420770546637644e-03, 3.744591634918211e+01, 3.678241342458795e-01
32, 1.538086133079550e+00, 5.352202629500000e-08, 1.765293256970025e-04, 1.101369415409736e-02, 8.098404659891140e-03, 3.763810831625619e+01, 2.249032851339261e-01
33, 1.431513124708660e+00, 5.352202629500000e-08, 1.751961534174889e-04, 1.341047169367929e-02, 1.061201149723257e-02, 3.760681801744733e+01, 1.922560660323798e-01
34, 1.345343622331700e+00, 5.352202629500000e-08, 1.732708537134116e-04, 1.571454772195397e-02, 1.195043444063256e-02, 3.735483354724197e+01, 1.756618969387344e-01
35, 1.275671354903060e+00, 5.352202629500000e-08, 1.713263157708379e-04, 1.831961364904931e-02, 1.247063050564754e-02, 3.712703557551215e+01, 1.623807111319376e-01
36, 1.219337910763940e+00, 5.352202629500000e-08, 1.691710905276578e-04, 2.021105593961882e-02, 1.132762080657614e-02, 3.678375496548281e+01, 1.547610673301951e-01
37, 1.173789559236190e+00, 5.352202629500000e-08, 1.681664635296173e-04, 2.040626162720958e-02, 8.767248253517809e-03, 3.655398198039554e+01, 1.534807362233543e-01
38, 1.136961483861060e+00, 5.352202629500000e-08, 1.675563452762037e-04, 1.859185218594532e-02, 6.045509037967681e-03, 3.628552810825916e+01, 1.535286363021780e-01
39, 1.107184179296940e+00, 5.352202629500000e-08, 1.677034154082110e-04, 1.604571315295093e-02, 3.958888320895903e-03, 3.615644021868258e+01, 1.485480126682933e-01
40, 1.083107768621840e+00, 5.352202629500000e-08, 1.680029432631200e-04, 1.355354747526247e-02, 2.567428788669365e-03, 3.608687135240795e+01, 1.367041511603779e-01
41, 1.063640810162010e+00, 5.352202629500000e-08, 1.683776426514331e-04, 1.145389693097889e-02, 1.719234784644272e-03, 3.607545284995469e+01, 1.211827274661438e-01
42, 1.047900819812490e+00, 5.352202629500000e-08, 1.686589620515909e-04, 9.643582405530057e-03, 1.108339820427673e-03, 3.606726643088863e+01, 1.047849060239041e-01
43, 1.035174265907630e+00, 5.352202629500000e-08, 1.688451456686207e-04, 8.053674601347835e-03, 7.031455258535032e-04, 3.605642219753737e+01, 8.870556739817589e-02
44, 1.024884223112370e+00, 5.352202629500000e-08, 1.689358533242802e-04, 6.604969550881655e-03, 4.152718558375865e-04, 3.603627487618195e+01, 7.319942344600190e-02
45, 1.016564219007590e+00, 5.352202629500000e-08, 1.688774727098667e-04, 5.254409929955945e-03, 2.191575922330206e-04, 3.599290579386003e+01, 5.817546845528512e-02
46, 1.009837087771990e+00, 5.352202629500000e-08, 1.687528327825733e-04, 3.890332692453634e-03, 8.000354704037991e-05, 3.594128308030982e+01, 4.307532077144492e-02
47, 1.004397872347220e+00, 5.352202629500000e-08, 1.681410842057262e-04, 2.474105688811195e-03, -1.890390044922134e-05, 3.579085435628502e+01, 2.678915113926683e-02
48, 1.000000000000000e+00, 5.352202629500000e-08, 1.681190470622096e-04, 0.000000000000000e+00, 0.000000000000000e+00, 3.577010558416065e+01, 0.000000000000000e+00
49, 9.957820729228830e-01, -5.967886532841323e-04, 1.688143719856321e-04, 0.000000000000000e+00, 0.000000000000000e+00, 3.596714120621862e+01, 0.000000000000000e+00
50, 9.909241437988340e-01, -1.280289614488857e-03, 1.685132760407237e-04, 0.000000000000000e+00, 0.000000000000000e+00, 3.592516645303044e+01, 0.000000000000000e+00
51, 9.853368952903420e-01, -2.061293361678059e-03, 1.684226776472409e-04, 0.000000000000000e+00, 0.000000000000000e+00, 3.591826309970893e+01, 0.000000000000000e+00
52, 9.789211302792580e-01, -2.951446198418808e-03, 1.682687233479819e-04, 0.000000000000000e+00, 0.000000000000000e+00, 3.589350264453441e+01, 0.000000000000000e+00
53, 9.715675460812661e-01, -3.963073044857662e-03, 1.682920451463860e-04, 0.000000000000000e+00, 0.000000000000000e+00, 3.590363708085643e+01, 0.000000000000000e+00
54, 9.631568360186920e-01, -5.108981458577545e-03, 1.684044835585893e-04, 0.000000000000000e+00, 0.000000000000000e+00, 3.593033070759159e+01, 0.000000000000000e+00
55, 9.535602429161220e-01, -6.402177880090121e-03, 1.686272718726081e-04, 0.000000000000000e+00, 0.000000000000000e+00, 3.597844910117136e+01, 0.000000000000000e+00
56, 9.426407105822270e-01, -7.855481327107042e-03, 1.688650865928678e-04, 0.000000000000000e+00, 0.000000000000000e+00, 3.602833416219094e+01, 0.000000000000000e+00
57, 9.302547962764830e-01, -9.481022247350132e-03, 1.691015174337555e-04, 0.000000000000000e+00, 0.000000000000000e+00, 3.607746374014205e+01, 0.000000000000000e+00
58, 9.162555145009680e-01, -1.128961886009035e-02, 1.693039810191715e-04, 0.000000000000000e+00, 0.000000000000000e+00, 3.611964239812450e+01, 0.000000000000000e+00
59, 9.004962734807360e-01, -1.329003047580013e-02, 1.694930264822543e-04, 0.000000000000000e+00, 0.000000000000000e+00, 3.615972511068177e+01, 0.000000000000000e+00
60, 8.828360320456839e-01, -1.548809659764239e-02, 1.696725614879715e-04, 0.000000000000000e+00, 0.000000000000000e+00, 3.619846013278853e+01, 0.000000000000000e+00
61, 8.631457374960591e-01, -1.788578165295289e-02, 1.698652789890383e-04, 0.000000000000000e+00, 0.000000000000000e+00, 3.624050394769463e+01, 0.000000000000000e+00
62, 8.413159970120960e-01, -2.048015683562499e-02, 1.700686271057163e-04, 0.000000000000000e+00, 0.000000000000000e+00, 3.628492194507812e+01, 0.000000000000000e+00
63, 8.172657826166300e-01, -2.326236201353585e-02, 1.702927221152923e-04, 0.000000000000000e+00, 0.000000000000000e+00, 3.633380386979925e+01, 0.000000000000000e+00
64, 7.909517772165610e-01, -2.621660130830753e-02, 1.705275364940738e-04, 0.000000000000000e+00, 0.000000000000000e+00, 3.638483792002611e+01, 0.000000000000000e+00
65, 7.623777524675190e-01, -2.931923744885270e-02, 1.707773524600483e-04, 0.000000000000000e+00, 0.000000000000000e+00, 3.643912512758026e+01, 0.000000000000000e+00
66, 7.316031585245610e-01, -3.253806414443636e-02, 1.710344764652241e-04, 0.000000000000000e+00, 0.000000000000000e+00, 3.649495634705380e+01, 0.000000000000000e+00
67, 6.987499446352849e-01, -3.583185629664898e-02, 1.713017221299826e-04, 0.000000000000000e+00, 0.000000000000000e+00, 3.655317564566411e+01, 0.000000000000000e+00
68, 6.640065698311099e-01, -3.915032464739417e-02, 1.715747115917336e-04, 0.000000000000000e+00, 0.000000000000000e+00, 3.661275776168462e+01, 0.000000000000000e+00
69, 6.276282525902900e-01, -4.243462858861940e-02, 1.718561184968196e-04, 0.000000000000000e+00, 0.000000000000000e+00, 3.667449608287326e+01, 0.000000000000000e+00
70, 5.899327756923080e-01, -4.561861289428874e-02, 1.721450531324072e-04, 0.000000000000000e+00, 0.000000000000000e+00, 3.673809167186769e+01, 0.000000000000000e+00
71, 5.512916003363530e-01, -4.863090808605761e-02, 1.724434787708561e-04, 0.000000000000000e+00, 0.000000000000000e+00, 3.680412696409670e+01, 0.000000000000000e+00
72, 5.121166001065770e-01, -5.139794887290158e-02, 1.727541074478003e-04, 0.000000000000000e+00, 0.000000000000000e+00, 3.687307130746134e+01, 0.000000000000000e+00
73, 4.728433082391680e-01, -5.384781416072871e-02, 1.730780507552713e-04, 0.000000000000000e+00, 0.000000000000000e+00, 3.694525027397334e+01, 0.000000000000000e+00
74, 4.339120676130220e-01, -5.591460064650605e-02, 1.734209019646276e-04, 0.000000000000000e+00, 0.000000000000000e+00, 3.702174634296092e+01, 0.000000000000000e+00
75, 3.957487779587870e-01, -5.754285488135374e-02, 1.737830641637403e-04, 0.000000000000000e+00, 0.000000000000000e+00, 3.710266417365337e+01, 0.000000000000000e+00
76, 3.587469844042950e-01, -5.869148183384367e-02, 1.741716099469593e-04, 0.000000000000000e+00, 0.000000000000000e+00, 3.718943198123580e+01, 0.000000000000000e+00
77, 3.232528390902350e-01, -5.933656107664884e-02, 1.745856526790284e-04, 0.000000000000000e+00, 0.000000000000000e+00, 3.728186378867358e+01, 0.000000000000000e+00
78, 2.895540445181870e-01, -5.947265120547269e-02, 1.750316748028281e-04, 0.000000000000000e+00, 0.000000000000000e+00, 3.738132010615514e+01, 0.000000000000000e+00
79, 2.578733448481230e-01, -5.911241796041434e-02, 1.755070870516508e-04, 0.000000000000000e+00, 0.000000000000000e+00, 3.748727064142519e+01, 0.000000000000000e+00
80, 2.283665749856950e-01, -5.828472232042683e-02, 1.760163857925744e-04, 0.000000000000000e+00, 0.000000000000000e+00, 3.760070602916971e+01, 0.000000000000000e+00
81, 2.011247989315330e-01, -5.703150512358030e-02, 1.765547589456920e-04, 0.000000000000000e+00, 0.000000000000000e+00, 3.772065371976463e+01, 0.000000000000000e+00
82, 1.761797307773510e-01, -5.540399685008031e-02, 1.771246616685202e-04, 0.000000000000000e+00, 0.000000000000000e+00, 3.784770827152256e+01, 0.000000000000000e+00
83, 1.535114573767690e-01, -5.345875993105773e-02, 1.777195202431840e-04, 0.000000000000000e+00, 0.000000000000000e+00, 3.798052396114506e+01, 0.000000000000000e+00
84, 1.330574640378200e-01, -5.125402533974487e-02, 1.783390435030426e-04, 0.000000000000000e+00, 0.000000000000000e+00, 3.811908373949188e+01, 0.000000000000000e+00
85, 1.147220644565820e-01, -4.884662296676224e-02, 1.789765158562326e-04, 0.000000000000000e+00, 0.000000000000000e+00, 3.826196676640485e+01, 0.000000000000000e+00
86, 9.838551560343448e-02, -4.628967359474944e-02, 1.796283227143874e-04, 0.000000000000000e+00, 0.000000000000000e+00, 3.840837989561195e+01, 0.000000000000000e+00
87, 8.391230598462590e-02, -4.363106518129783e-02, 1.802867045754913e-04, 0.000000000000000e+00, 0.000000000000000e+00, 3.855660381826258e+01, 0.000000000000000e+00
88, 7.115831019240228e-02, -4.091264364521334e-02, 1.809451648524314e-04, 0.000000000000000e+00, 0.000000000000000e+00, 3.870515692529174e+01, 0.000000000000000e+00
89, 5.997667081241873e-02, -3.816999333835450e-02, 1.815932026454153e-04, 0.000000000000000e+00, 0.000000000000000e+00, 3.885165709549305e+01, 0.000000000000000e+00
90, 5.022241269090757e-02, -3.543266689255811e-02, 1.822193969801241e-04, 0.000000000000000e+00, 0.000000000000000e+00, 3.899348102807063e+01, 0.000000000000000e+00
91, 4.175587666437301e-02, -3.272472343659386e-02, 1.828086516266497e-04, 0.000000000000000e+00, 0.000000000000000e+00, 3.912716739667844e+01, 0.000000000000000e+00
92, 3.444508613221498e-02, -3.006547322461565e-02, 1.833431689154423e-04, 0.000000000000000e+00, 0.000000000000000e+00, 3.924861053058824e+01, 0.000000000000000e+00
93, 2.816723852735188e-02, -2.747032780714164e-02, 1.838000170871277e-04, 0.000000000000000e+00, 0.000000000000000e+00, 3.935252356661668e+01, 0.000000000000000e+00
94, 2.280943840223927e-02, -2.495170224279449e-02, 1.841529478785790e-04, 0.000000000000000e+00, 0.000000000000000e+00, 3.943282540946446e+01, 0.000000000000000e+00
95, 1.826885694347390e-02, -2.251990184115951e-02, 1.843713153718025e-04, 0.000000000000000e+00, 0.000000000000000e+00, 3.948241088006448e+01, 0.000000000000000e+00
96, 1.445220176924677e-02, -2.018402699144572e-02, 1.844216586744265e-04, 0.000000000000000e+00, 0.000000000000000e+00, 3.949351272235881e+01, 0.000000000000000e+00
97, 1.127516040522520e-02, -1.795262732939143e-02, 1.842705751191949e-04, 0.000000000000000e+00, 0.000000000000000e+00, 3.945838789340986e+01, 0.000000000000000e+00
98, 8.660977828664375e-03, -1.583432528077909e-02, 1.838889781732308e-04, 0.000000000000000e+00, 0.000000000000000e+00, 3.937032818139151e+01, 0.000000000000000e+00
99, 6.539262456987240e-03, -1.383809857154541e-02, 1.832591815054408e-04, 0.000000000000000e+00, 0.000000000000000e+00, 3.922530817072658e+01, 0.000000000000000e+00
100, 4.844550253733529e-03, -1.197282395717829e-02, 1.823823887414888e-04, 0.000000000000000e+00, 0.000000000000000e+00, 3.902371408820215e+01, 0.000000000000000e+00
101, 3.515319859016383e-03, -1.024671366603845e-02, 1.812841475272106e-04, 0.000000000000000e+00, 0.000000000000000e+00, 3.877157540337278e+01, 0.000000000000000e+00
102, 2.493434235242850e-03, -8.666019672232862e-03, 1.800137915734617e-04, 0.000000000000000e+00, 0.000000000000000e+00, 3.848038772780231e+01, 0.000000000000000e+00
103, 1.724623063799526e-03, -7.234076671312168e-03, 1.786374664167256e-04, 0.000000000000000e+00, 0.000000000000000e+00, 3.816544994599744e+01, 0.000000000000000e+00
104, 1.159193085740397e-03, -5.950300022223502e-03, 1.772262791714243e-04, 0.000000000000000e+00, 0.000000000000000e+00, 3.784309919954232e+01, 0.000000000000000e+00
105, 7.531893324873004e-04, -4.810177416320721e-03, 1.758469554924594e-04, 0.000000000000000e+00, 0.000000000000000e+00, 3.752851681136158e+01, 0.000000000000000e+00
106, 4.691284473891598e-04, -3.805771251873249e-03, 1.745493423544876e-04, 0.000000000000000e+00, 0.000000000000000e+00, 3.723296392793829e+01, 0.000000000000000e+00
107, 2.762360161117116e-04, -2.926719015761365e-03, 1.733630807338544e-04, 0.000000000000000e+00, 0.000000000000000e+00, 3.696308673251843e+01, 0.000000000000000e+00
108, 1.500786146402364e-04, -2.161299885350869e-03, 1.722994803790601e-04, 0.000000000000000e+00, 0.000000000000000e+00, 3.672139271111663e+01, 0.000000000000000e+00
109, 7.180327325045228e-05, -1.497376923399532e-03, 1.713583761880507e-04, 0.000000000000000e+00, 0.000000000000000e+00, 3.650779603452393e+01, 0.000000000000000e+00
110, 2.721275945542452e-05, -9.231024271926752e-04, 1.705377729233635e-04, 0.000000000000000e+00, 0.000000000000000e+00, 3.632174382914634e+01, 0.000000000000000e+00
111, 5.818606343871792e-06, -4.273592490875973e-04, 1.698258928200850e-04, 0.000000000000000e+00, 0.000000000000000e+00, 3.616056622878990e+01, 0.000000000000000e+00
112, 0.000000000000000e+00, 0.000000000000000e+00, 1.690804564111873e-04, 0.000000000000000e+00, 0.000000000000000e+00, 3.599381201307231e+01, 0.000000000000000e+00
113, 5.818606344095651e-06, 4.273592490958099e-04, 1.680649495322560e-04, 0.000000000000000e+00, 0.000000000000000e+00, 3.577091077353016e+01, 0.000000000000000e+00
114, 2.721275945665566e-05, 9.231024272135111e-04, 1.674338311092130e-04, 0.000000000000000e+00, 0.000000000000000e+00, 3.562713435164639e+01, 0.000000000000000e+00
115, 7.180327325368544e-05, 1.497376923433127e-03, 1.666400596150411e-04, 0.000000000000000e+00, 0.000000000000000e+00, 3.544755562555115e+01, 0.000000000000000e+00
116, 1.500786146456709e-04, 2.161299885389794e-03, 1.658097055664692e-04, 0.000000000000000e+00, 0.000000000000000e+00, 3.525893768175450e+01, 0.000000000000000e+00
117, 2.762360161229505e-04, 2.926719015820480e-03, 1.650978783764099e-04, 0.000000000000000e+00, 0.000000000000000e+00, 3.509438971170634e+01, 0.000000000000000e+00
118, 4.691284474090552e-04, 3.805771251953191e-03, 1.644687183950018e-04, 0.000000000000000e+00, 0.000000000000000e+00, 3.494655160311520e+01, 0.000000000000000e+00
119, 7.531893325176259e-04, 4.810177416416397e-03, 1.636779639736758e-04, 0.000000000000000e+00, 0.000000000000000e+00, 3.476405217696869e+01, 0.000000000000000e+00
120, 1.159193085789885e-03, 5.950300022348630e-03, 1.625005214655102e-04, 0.000000000000000e+00, 0.000000000000000e+00, 3.449964750010246e+01, 0.000000000000000e+00
