"PointID","x","y","Density","Momentum_x","Momentum_y","Energy","Nu_Tilde"
0, 5.010000078023450e+02, 5.352202629500000e-08, 1.760742898906450e-04, 1.733433156061442e-02, 5.299503646174121e-03, 3.795605780996486e+01, 3.088314846889803e-01
1, 4.052709646366250e+02, 5.352202629500000e-08, 1.760755639190917e-04, 1.733402122485701e-02, 5.299541998456865e-03, 3.795639592594237e+01, 3.088326254743909e-01
2, 3.278693397908290e+02, 5.352202629500000e-08, 1.760755650456906e-04, 1.733402085749095e-02, 5.299542137932608e-03, 3.795639630800142e+01, 3.088318187902417e-01
3, 2.652863312215480e+02, 5.352202629500000e-08, 1.760755680936078e-04, 1.733402230633292e-02, 5.299544729674619e-03, 3.795639727988419e+01, 3.088305304551805e-01
4, 2.146849004455700e+02, 5.352202629500000e-08, 1.760755910609631e-04, 1.733403478799313e-02, 5.299573738560044e-03, 3.795640579284882e+01, 3.088284716305442e-01
5, 1.737711627536290e+02, 5.352202629500000e-08, 1.760756855622691e-04, 1.733409961317234e-02, 5.299769689838098e-03, 3.795644544787412e+01, 3.088251724523389e-01
6, 1.406903998926780e+02, 5.352202629500000e-08, 1.760758595156779e-04, 1.733428873822024e-02, 5.300599613644172e-03, 3.795654012450438e+01, 3.088195294100518e-01
7, 1.139429812211730e+02, 5.352202629500000e-08, 1.760757674957683e-04, 1.733459048378966e-02, 5.302807437794033e-03, 3.795660809838829e+01, 3.088085401438879e-01
8, 9.231638184086459e+01, 5.352202629500000e-08, 1.760749708859676e-04, 1.733505456810540e-02, 5.306603921033748e-03, 3.795653399977994e+01, 3.087864721408735e-01
9, 7.483021592330550e+01, 5.352202629500000e-08, 1.760744437452139e-04, 1.733694256761268e-02, 5.311915320183786e-03, 3.795673515114382e+01, 3.087440262103770e-01
10, 6.069179345940150e+01, 5.352202629500000e-08, 1.760750232867057e-04, 1.734367422431956e-02, 5.320595140112312e-03, 3.795783240010645e+01, 3.086588516993773e-01
11, 4.926018571243980e+01, 5.352202629500000e-08, 1.760741235904247e-04, 1.736109355893839e-02, 5.331991278896000e-03, 3.795962683462575e+01, 3.084873054226610e-01
12, 4.001717037504760e+01, 5.352202629500000e-08, 1.760722470529671e-04, 1.739496895290434e-02, 5.332534331824685e-03, 3.796247195655984e+01, 3.081799570059497e-01
13, 3.254373930407910e+01, 5.352202629500000e-08, 1.760721638522488e-04, 1.743110226321739e-02, 5.301446371583567e-03, 3.796508607592571e+01, 3.077024370473334e-01
14, 2.650110387248250e+01, 5.352202629500000e-08, 1.760731130767201e-04, 1.743106790222095e-02, 5.245796915574181e-03, 3.796363068275177e+01, 3.070649688115478e-01
15, 2.161533686500620e+01, 5.352202629500000e-08, 1.760731253460214e-04, 1.739949663343439e-02, 5.221730285862683e-03, 3.795982338905463e+01, 3.062767061131917e-01
16, 1.766495469789320e+01, 5.352202629500000e-08, 1.760687904692870e-04, 1.739381547076459e-02, 5.237212301290177e-03, 3.795856484279198e+01, 3.053501955274561e-01
17, 1.447087703467990e+01, 5.352202629500000e-08, 1.760672944760820e-04, 1.740507539669476e-02, 5.221734650451892e-03, 3.795870181516298e+01, 3.042610773516581e-01
18, 1.188830864330480e+01, 5.352202629500000e-08, 1.760674945558675e-04, 1.739100471682394e-02, 5.205503966995353e-03, 3.795678579571199e+01, 3.029227098394565e-01
19, 9.800175479560719e+00, 5.352202629500000e-08, 1.760560383988228e-04, 1.739723814692776e-02, 5.229306270491201e-03, 3.795521391299302e+01, 3.012545247010512e-01
20, 8.111817438747661e+00, 5.352202629500000e-08, 1.760453199457909e-04, 1.743375216290065e-02, 5.229718620156925e-03, 3.795558688545371e+01, 2.991385994125046e-01
21, 6.746697185177710e+00, 5.352202629500000e-08, 1.760225864627144e-04, 1.749615442318039e-02, 5.197298160400597e-03, 3.795499844598325e+01, 2.963050899466447e-01
22, 5.642930530440520e+00, 5.352202629500000e-08, 1.760546746472364e-04, 1.755796603944693e-02, 5.096456035463238e-03, 3.796540777288200e+01, 2.925918484908365e-01
23, 4.750481074120650e+00, 5.352202629500000e-08, 1.760541119916500e-04, 1.751626879523338e-02, 5.023387707448123e-03, 3.795872198252150e+01, 2.882295329427373e-01
24, 4.028891933275240e+00, 5.352202629500000e-08, 1.759991508469417e-04, 1.746093393433669e-02, 5.065788394771454e-03, 3.794059753456971e+01, 2.832374850432789e-01
25, 3.445451734506840e+00, 5.352202629500000e-08, 1.759594602939692e-04, 1.756959778773906e-02, 5.124525496364979e-03, 3.794401622790848e+01, 2.789239205418519e-01
26, 2.973711728635770e+00, 5.352202629500000e-08, 1.758302742518406e-04, 1.769337102745713e-02, 4.856220169687016e-03, 3.792681614829323e+01, 2.749404695783794e-01
27, 2.592286805209170e+00, 5.352202629500000e-08, 1.762109402115060e-04, 1.699249940599699e-02, 4.441856836669095e-03, 3.795168299788832e+01, 2.699248981749695e-01
28, 2.283886053947150e+00, 5.352202629500000e-08, 1.759323217919925e-04, 1.639947743155812e-02, 6.035953017891914e-03, 3.786004483585788e+01, 2.614596316713497e-01
29, 2.034528926141940e+00, 5.352202629500000e-08, 1.750502740298082e-04, 1.881577495709991e-02, 7.375754854187939e-03, 3.795629013793853e+01, 2.810177652406803e-01
30, 1.832911462718730e+00, 5.352202629500000e-08, 1.735732512370626e-04, 2.042357201793170e-02, 3.850185824463359e-03, 3.787036027227610e+01, 3.679017605025447e-01
31, 1.669893858549960e+00, 5.352202629500000e-08, 1.748552752414493e-04, 1.541996570369351e-02, -2.826892044781392e-03, 3.792520067457593e+01, 4.822703203140764e-01
32, 1.538086133079550e+00, 5.352202629500000e-08, 1.762848593884161e-04, 8.488371870160367e-03, -1.244541763906197e-03, 3.749792751607738e+01, 4.142195724954644e-01
33, 1.431513124708660e+00, 5.352202629500000e-08, 1.768019173103983e-04, 9.816531244751091e-03, 6.908780055356047e-03, 3.757958431769674e+01, 2.367794097534597e-01
34, 1.345343622331700e+00, 5.352202629500000e-08, 1.758057253697271e-04, 1.194012118709997e-02, 9.941495818059807e-03, 3.757888957757716e+01, 1.791804062491361e-01
35, 1.275671354903060e+00, 5.352202629500000e-08, 1.737605336477856e-04, 1.354700675184674e-02, 1.154624223467470e-02, 3.728840584896092e+01, 1.645924800634269e-01
36, 1.219337910763940e+00, 5.352202629500000e-08, 1.720110838161313e-04, 1.564361522062735e-02, 1.292908937482418e-02, 3.706426609292048e+01, 1.546534703969417e-01
37, 1.173789559236190e+00, 5.352202629500000e-08, 1.693019556515683e-04, 1.753357913207636e-02, 1.311379726288832e-02, 3.662616693956784e+01, 1.464104485535824e-01
38, 1.136961483861060e+00, 5.352202629500000e-08, 1.672168397695942e-04, 1.880892109554646e-02, 1.182787893759104e-02, 3.624473406843959e+01, 1.394971175225074e-01
39, 1.107184179296940e+00, 5.352202629500000e-08, 1.655128857726832e-04, 1.853358845912129e-02, 9.558012457928486e-03, 3.583572150743949e+01, 1.333316027987333e-01
40, 1.083107768621840e+00, 5.352202629500000e-08, 1.646578113231847e-04, 1.699982368111655e-02, 7.167474333691300e-03, 3.553763132865711e+01, 1.259677355491120e-01
41, 1.063640810162010e+00, 5.352202629500000e-08, 1.642739515502928e-04, 1.479811587668681e-02, 5.136853296222157e-03, 3.532091510723464e+01, 1.157556277614842e-01
42, 1.047900819812490e+00, 5.352202629500000e-08, 1.643409017202967e-04, 1.260586283672511e-02, 3.609247875722841e-03, 3.522448241583898e+01, 1.027968248044275e-01
43, 1.035174265907630e+00, 5.352202629500000e-08, 1.644538297252043e-04, 1.058239910331843e-02, 2.495545454011403e-03, 3.516694774402073e+01, 8.864941596752587e-02
44, 1.024884223112370e+00, 5.352202629500000e-08, 1.646124962418704e-04, 8.728965208819755e-03, 1.682353621642257e-03, 3.514090331014768e+01, 7.469666720866740e-02
45, 1.016564219007590e+00, 5.352202629500000e-08, 1.645956942155199e-04, 6.985035823542763e-03, 1.080135839078447e-03, 3.509207486159873e+01, 6.066723607007872e-02
46, 1.009837087771990e+00, 5.352202629500000e-08, 1.645222934529597e-04, 5.218134562233639e-03, 6.352137876708062e-04, 3.504015032740043e+01, 4.613700624365241e-02
47, 1.004397872347220e+00, 5.352202629500000e-08, 1.637005674656857e-04, 3.307324157982708e-03, 2.872717958196678e-04, 3.483521267514649e+01, 2.948497187513302e-02
48, 1.000000000000000e+00, 5.352202629500000e-08, 1.640989089774639e-04, 0.000000000000000e+00, 0.000000000000000e+00, 3.489606187193536e+01, 0.000000000000000e+00
49, 9.957820729228830e-01, -5.967886532841323e-04, 1.653226817349246e-04, 0.000000000000000e+00, 0.000000000000000e+00, 3.521661961608805e+01, 0.000000000000000e+00
50, 9.909241437988340e-01, -1.280289614488857e-03, 1.653853631345871e-04, 0.000000000000000e+00, 0.000000000000000e+00, 3.525251974937679e+01, 0.000000000000000e+00
51, 9.853368952903420e-01, -2.061293361678059e-03, 1.656075982299570e-04, 0.000000000000000e+00, 0.000000000000000e+00, 3.530720098164568e+01, 0.000000000000000e+00
52, 9.789211302792580e-01, -2.951446198418808e-03, 1.656911256537949e-04, 0.000000000000000e+00, 0.000000000000000e+00, 3.532598583164467e+01, 0.000000000000000e+00
53, 9.715675460812661e-01, -3.963073044857662e-03, 1.658386947589453e-04, 0.000000000000000e+00, 0.000000000000000e+00, 3.535619997575769e+01, 0.000000000000000e+00
54, 9.631568360186920e-01, -5.108981458577545e-03, 1.660164545811452e-04, 0.000000000000000e+00, 0.000000000000000e+00, 3.539225934739869e+01, 0.000000000000000e+00
55, 9.535602429161220e-01, -6.402177880090121e-03, 1.662624286681006e-04, 0.000000000000000e+00, 0.000000000000000e+00, 3.544234160348273e+01, 0.000000000000000e+00
56, 9.426407105822270e-01, -7.855481327107042e-03, 1.665715078152902e-04, 0.000000000000000e+00, 0.000000000000000e+00, 3.550526066949409e+01, 0.000000000000000e+00
57, 9.302547962764830e-01, -9.481022247350132e-03, 1.669129558257330e-04, 0.000000000000000e+00, 0.000000000000000e+00, 3.557707091392034e+01, 0.000000000000000e+00
58, 9.162555145009680e-01, -1.128961886009035e-02, 1.672880869192322e-04, 0.000000000000000e+00, 0.000000000000000e+00, 3.565478832380826e+01, 0.000000000000000e+00
59, 9.004962734807360e-01, -1.329003047580013e-02, 1.676615971271036e-04, 0.000000000000000e+00, 0.000000000000000e+00, 3.573135012171371e+01, 0.000000000000000e+00
60, 8.828360320456839e-01, -1.548809659764239e-02, 1.680500798014970e-04, 0.000000000000000e+00, 0.000000000000000e+00, 3.581064355793990e+01, 0.000000000000000e+00
61, 8.631457374960591e-01, -1.788578165295289e-02, 1.684284476651525e-04, 0.000000000000000e+00, 0.000000000000000e+00, 3.588757812769158e+01, 0.000000000000000e+00
62, 8.413159970120960e-01, -2.048015683562499e-02, 1.688105999997497e-04, 0.000000000000000e+00, 0.000000000000000e+00, 3.596586644132283e+01, 0.000000000000000e+00
63, 8.172657826166300e-01, -2.326236201353585e-02, 1.691765161498489e-04, 0.000000000000000e+00, 0.000000000000000e+00, 3.604206720652838e+01, 0.000000000000000e+00
64, 7.909517772165610e-01, -2.621660130830753e-02, 1.695408856721876e-04, 0.000000000000000e+00, 0.000000000000000e+00, 3.611984287710845e+01, 0.000000000000000e+00
65, 7.623777524675190e-01, -2.931923744885270e-02, 1.698902375192038e-04, 0.000000000000000e+00, 0.000000000000000e+00, 3.619613878366385e+01, 0.000000000000000e+00
66, 7.316031585245610e-01, -3.253806414443636e-02, 1.702413512254139e-04, 0.000000000000000e+00, 0.000000000000000e+00, 3.627414378257009e+01, 0.000000000000000e+00
67, 6.987499446352849e-01, -3.583185629664898e-02, 1.705844859147564e-04, 0.000000000000000e+00, 0.000000000000000e+00, 3.635109780740340e+01, 0.000000000000000e+00
68, 6.640065698311099e-01, -3.915032464739417e-02, 1.709335987815883e-04, 0.000000000000000e+00, 0.000000000000000e+00, 3.642965159463884e+01, 0.000000000000000e+00
69, 6.276282525902900e-01, -4.243462858861940e-02, 1.712807310857027e-04, 0.000000000000000e+00, 0.000000000000000e+00, 3.650776648115906e+01, 0.000000000000000e+00
70, 5.899327756923080e-01, -4.561861289428874e-02, 1.716365046106306e-04, 0.000000000000000e+00, 0.000000000000000e+00, 3.658779697934683e+01, 0.000000000000000e+00
71, 5.512916003363530e-01, -4.863090808605761e-02, 1.719948421267271e-04, 0.000000000000000e+00, 0.000000000000000e+00, 3.666839969764520e+01, 0.000000000000000e+00
72, 5.121166001065770e-01, -5.139794887290158e-02, 1.723646657133373e-04, 0.000000000000000e+00, 0.000000000000000e+00, 3.675173184023522e+01, 0.000000000000000e+00
73, 4.728433082391680e-01, -5.384781416072871e-02, 1.727424348495236e-04, 0.000000000000000e+00, 0.000000000000000e+00, 3.683706105092354e+01, 0.000000000000000e+00
74, 4.339120676130220e-01, -5.591460064650605e-02, 1.731369607064938e-04, 0.000000000000000e+00, 0.000000000000000e+00, 3.692629872026723e+01, 0.000000000000000e+00
75, 3.957487779587870e-01, -5.754285488135374e-02, 1.735451525504675e-04, 0.000000000000000e+00, 0.000000000000000e+00, 3.701885283591354e+01, 0.000000000000000e+00
76, 3.587469844042950e-01, -5.869148183384367e-02, 1.739728381829641e-04, 0.000000000000000e+00, 0.000000000000000e+00, 3.711664171825707e+01, 0.000000000000000e+00
77, 3.232528390902350e-01, -5.933656107664884e-02, 1.744205134753788e-04, 0.000000000000000e+00, 0.000000000000000e+00, 3.721934877548213e+01, 0.000000000000000e+00
78, 2.895540445181870e-01, -5.947265120547269e-02, 1.748954121121247e-04, 0.000000000000000e+00, 0.000000000000000e+00, 3.732859889719290e+01, 0.000000000000000e+00
79, 2.578733448481230e-01, -5.911241796041434e-02, 1.753918363829217e-04, 0.000000000000000e+00, 0.000000000000000e+00, 3.744388338896162e+01, 0.000000000000000e+00
80, 2.283665749856950e-01, -5.828472232042683e-02, 1.759130361902519e-04, 0.000000000000000e+00, 0.000000000000000e+00, 3.756550864758290e+01, 0.000000000000000e+00
81, 2.011247989315330e-01, -5.703150512358030e-02, 1.764599807261759e-04, 0.000000000000000e+00, 0.000000000000000e+00, 3.769296513609737e+01, 0.000000000000000e+00
82, 1.761797307773510e-01, -5.540399685008031e-02, 1.770348434832586e-04, 0.000000000000000e+00, 0.000000000000000e+00, 3.782685083595975e+01, 0.000000000000000e+00
83, 1.535114573767690e-01, -5.345875993105773e-02, 1.776321412835915e-04, 0.000000000000000e+00, 0.000000000000000e+00, 3.796617105722422e+01, 0.000000000000000e+00
84, 1.330574640378200e-01, -5.125402533974487e-02, 1.782549494361162e-04, 0.000000000000000e+00, 0.000000000000000e+00, 3.811087232198769e+01, 0.000000000000000e+00
85, 1.147220644565820e-01, -4.884662296676224e-02, 1.789108321531614e-04, 0.000000000000000e+00, 0.000000000000000e+00, 3.825864060256368e+01, 0.000000000000000e+00
86, 9.838551560343448e-02, -4.628967359474944e-02, 1.795828597097049e-04, 0.000000000000000e+00, 0.000000000000000e+00, 3.840920954454555e+01, 0.000000000000000e+00
87, 8.391230598462590e-02, -4.363106518129783e-02, 1.802609242107964e-04, 0.000000000000000e+00, 0.000000000000000e+00, 3.856117935140843e+01, 0.000000000000000e+00
88, 7.115831019240228e-02, -4.091264364521334e-02, 1.809380460123984e-04, 0.000000000000000e+00, 0.000000000000000e+00, 3.871288836880117e+01, 0.000000000000000e+00
89, 5.997667081241873e-02, -3.816999333835450e-02, 1.816018030025638e-04, 0.000000000000000e+00, 0.000000000000000e+00, 3.886190140249628e+01, 0.000000000000000e+00
90, 5.022241269090757e-02, -3.543266689255811e-02, 1.822386805859843e-04, 0.000000000000000e+00, 0.000000000000000e+00, 3.900556754508377e+01, 0.000000000000000e+00
91, 4.175587666437301e-02, -3.272472343659386e-02, 1.828337192582846e-04, 0.000000000000000e+00, 0.000000000000000e+00, 3.914050577641613e+01, 0.000000000000000e+00
92, 3.444508613221498e-02, -3.006547322461565e-02, 1.833701983162776e-04, 0.000000000000000e+00, 0.000000000000000e+00, 3.926264896100461e+01, 0.000000000000000e+00
93, 2.816723852735188e-02, -2.747032780714164e-02, 1.838256422693069e-04, 0.000000000000000e+00, 0.000000000000000e+00, 3.936661747763710e+01, 0.000000000000000e+00
94, 2.280943840223927e-02, -2.495170224279449e-02, 1.841731285201017e-04, 0.000000000000000e+00, 0.000000000000000e+00, 3.944608895045447e+01, 0.000000000000000e+00
95, 1.826885694347390e-02, -2.251990184115951e-02, 1.843807926088659e-04, 0.000000000000000e+00, 0.000000000000000e+00, 3.949368538769014e+01, 0.000000000000000e+00
96, 1.445220176924677e-02, -2.018402699144572e-02, 1.844143870377616e-04, 0.000000000000000e+00, 0.000000000000000e+00, 3.950152170521412e+01, 0.000000000000000e+00
97, 1.127516040522520e-02, -1.795262732939143e-02, 1.842383961121951e-04, 0.000000000000000e+00, 0.000000000000000e+00, 3.946142403669295e+01, 0.000000000000000e+00
98, 8.660977828664375e-03, -1.583432528077909e-02, 1.838220390428336e-04, 0.000000000000000e+00, 0.000000000000000e+00, 3.936624284361570e+01, 0.000000000000000e+00
99, 6.539262456987240e-03, -1.383809857154541e-02, 1.831480879547087e-04, 0.000000000000000e+00, 0.000000000000000e+00, 3.921199723963090e+01, 0.000000000000000e+00
100, 4.844550253733529e-03, -1.197282395717829e-02, 1.822193561206401e-04, 0.000000000000000e+00, 0.000000000000000e+00, 3.899946495620230e+01, 0.000000000000000e+00
101, 3.515319859016383e-03, -1.024671366603845e-02, 1.810619570958859e-04, 0.000000000000000e+00, 0.000000000000000e+00, 3.873483071814683e+01, 0.000000000000000e+00
102, 2.493434235242850e-03, -8.666019672232862e-03, 1.797273631904443e-04, 0.000000000000000e+00, 0.000000000000000e+00, 3.843007409156807e+01, 0.000000000000000e+00
103, 1.724623063799526e-03, -7.234076671312168e-03, 1.782877245570408e-04, 0.000000000000000e+00, 0.000000000000000e+00, 3.810179712791211e+01, 0.000000000000000e+00
104, 1.159193085740397e-03, -5.950300022223502e-03, 1.768199281795807e-04, 0.000000000000000e+00, 0.000000000000000e+00, 3.776758261034498e+01, 0.000000000000000e+00
105, 7.531893324873004e-04, -4.810177416320721e-03, 1.753939344201718e-04, 0.000000000000000e+00, 0.000000000000000e+00, 3.744329902256969e+01, 0.000000000000000e+00
106, 4.691284473891598e-04, -3.805771251873249e-03, 1.740620924640245e-04, 0.000000000000000e+00, 0.000000000000000e+00, 3.714072060174055e+01, 0.000000000000000e+00
107, 2.762360161117116e-04, -2.926719015761365e-03, 1.728568773354084e-04, 0.000000000000000e+00, 0.000000000000000e+00, 3.686706698685227e+01, 0.000000000000000e+00
108, 1.500786146402364e-04, -2.161299885350869e-03, 1.717945912724648e-04, 0.000000000000000e+00, 0.000000000000000e+00, 3.662586982189154e+01, 0.000000000000000e+00
109, 7.180327325045228e-05, -1.497376923399532e-03, 1.708797017950857e-04, 0.000000000000000e+00, 0.000000000000000e+00, 3.641798465637085e+01, 0.000000000000000e+00
110, 2.721275945542452e-05, -9.231024271926752e-04, 1.701096966114787e-04, 0.000000000000000e+00, 0.000000000000000e+00, 3.624269408245943e+01, 0.000000000000000e+00
111, 5.818606343871792e-06, -4.273592490875973e-04, 1.694292240876104e-04, 0.000000000000000e+00, 0.000000000000000e+00, 3.608798994687071e+01, 0.000000000000000e+00
112, 0.000000000000000e+00, 0.000000000000000e+00, 1.687320640719833e-04, 0.000000000000000e+00, 0.000000000000000e+00, 3.593101096499763e+01, 0.000000000000000e+00
113, 5.818606344095651e-06, 4.273592490958099e-04, 1.691153858085540e-04, 0.000000000000000e+00, 0.000000000000000e+00, 3.600300127412208e+01, 0.000000000000000e+00
114, 2.721275945665566e-05, 9.231024272135111e-04, 1.684145866988864e-04, 0.000000000000000e+00, 0.000000000000000e+00, 3.584474111503796e+01, 0.000000000000000e+00
115, 7.180327325368544e-05, 1.497376923433127e-03, 1.671609928045095e-04, 0.000000000000000e+00, 0.000000000000000e+00, 3.556781956344539e+01, 0.000000000000000e+00
116, 1.500786146456709e-04, 2.161299885389794e-03, 1.656954142350122e-04, 0.000000000000000e+00, 0.000000000000000e+00, 3.524485047323564e+01, 0.000000000000000e+00
117, 2.762360161229505e-04, 2.926719015820480e-03, 1.641852535066424e-04, 0.000000000000000e+00, 0.000000000000000e+00, 3.491156333661699e+01, 0.000000000000000e+00
118, 4.691284474090552e-04, 3.805771251953191e-03, 1.627506865641357e-04, 0.000000000000000e+00, 0.000000000000000e+00, 3.459374924043038e+01, 0.000000000000000e+00
119, 7.531893325176259e-04, 4.810177416416397e-03, 1.614996312606821e-04, 0.000000000000000e+00, 0.000000000000000e+00, 3.431473399393161e+01, 0.000000000000000e+00
120, 1.159193085789885e-03, 5.950300022348630e-03, 1.603709266585130e-04, 0.000000000000000e+00, 0.000000000000000e+00, 3.406205117340681e+01, 0.000000000000000e+00
