"PointID","x","y","Density","Momentum_x","Momentum_y","Energy","Nu_Tilde"
0, 5.010000078023450e+02, 5.352202629500000e-08, 1.759626195153703e-04, 1.736135696383065e-02, 5.296137761495091e-03, 3.792648698294285e+01, 3.086916949194531e-01
1, 4.052709646366250e+02, 5.352202629500000e-08, 1.760728636861318e-04, 1.733487999772333e-02, 5.299465029292337e-03, 3.795560518436785e+01, 3.088282978176519e-01
2, 3.278693397908290e+02, 5.352202629500000e-08, 1.760756291836383e-04, 1.733390549674294e-02, 5.299542503760912e-03, 3.795645071127309e+01, 3.088313487014752e-01
3, 2.652863312215480e+02, 5.352202629500000e-08, 1.760755774133711e-04, 1.733401763150517e-02, 5.299549096468028e-03, 3.795640177927694e+01, 3.088301627641419e-01
4, 2.146849004455700e+02, 5.352202629500000e-08, 1.760756118144472e-04, 1.733404809456124e-02, 5.299609908232112e-03, 3.795641396769842e+01, 3.088278658611007e-01
5, 1.737711627536290e+02, 5.352202629500000e-08, 1.760757317794318e-04, 1.733414279868363e-02, 5.299946237903830e-03, 3.795646853638103e+01, 3.088241313484271e-01
6, 1.406903998926780e+02, 5.352202629500000e-08, 1.760758494131641e-04, 1.733435881940864e-02, 5.301126220344084e-03, 3.795655920733023e+01, 3.088174141297534e-01
7, 1.139429812211730e+02, 5.352202629500000e-08, 1.760755220294060e-04, 1.733466067863896e-02, 5.303744972447663e-03, 3.795657047472603e+01, 3.088039895746594e-01
8, 9.231638184086459e+01, 5.352202629500000e-08, 1.760747322224872e-04, 1.733538918256500e-02, 5.307725962402587e-03, 3.795653474170858e+01, 3.087775484604666e-01
9, 7.483021592330550e+01, 5.352202629500000e-08, 1.760747115421546e-04, 1.733840314726470e-02, 5.313553202504079e-03, 3.795700839030540e+01, 3.087261967585737e-01
10, 6.069179345940150e+01, 5.352202629500000e-08, 1.760748484120489e-04, 1.734755097803304e-02, 5.323059285638936e-03, 3.795823192613351e+01, 3.086209829888252e-01
11, 4.926018571243980e+01, 5.352202629500000e-08, 1.760731119746727e-04, 1.736909986978561e-02, 5.331880036814223e-03, 3.796013384154153e+01, 3.084188764683899e-01
12, 4.001717037504760e+01, 5.352202629500000e-08, 1.760724235689165e-04, 1.740443515916630e-02, 5.323288582172095e-03, 3.796318280877509e+01, 3.080744836052995e-01
13, 3.254373930407910e+01, 5.352202629500000e-08, 1.760735305604205e-04, 1.742950445881569e-02, 5.283068510259688e-03, 3.796474906765759e+01, 3.075821225416890e-01
14, 2.650110387248250e+01, 5.352202629500000e-08, 1.760735171411769e-04, 1.741498491095037e-02, 5.236655757244941e-03, 3.796189348321367e+01, 3.069298473604437e-01
15, 2.161533686500620e+01, 5.352202629500000e-08, 1.760703590737203e-04, 1.738867016117655e-02, 5.232173007720391e-03, 3.795827102144543e+01, 3.061807492505669e-01
16, 1.766495469789320e+01, 5.352202629500000e-08, 1.760667963131005e-04, 1.739284095916543e-02, 5.240450873064736e-03, 3.795797820569134e+01, 3.052820427171256e-01
17, 1.447087703467990e+01, 5.352202629500000e-08, 1.760733348157822e-04, 1.739923685653669e-02, 5.222471742646597e-03, 3.795968616100885e+01, 3.042354084739984e-01
18, 1.188830864330480e+01, 5.352202629500000e-08, 1.760674822042050e-04, 1.740345081237295e-02, 5.226428054639591e-03, 3.795864637001668e+01, 3.029109770808642e-01
19, 9.800175479560719e+00, 5.352202629500000e-08, 1.760609900222442e-04, 1.744261294614346e-02, 5.222300063540013e-03, 3.796060708546286e+01, 3.011986774001512e-01
20, 8.111817438747661e+00, 5.352202629500000e-08, 1.760483545759558e-04, 1.746795734409253e-02, 5.171785132449925e-03, 3.795779603931629e+01, 2.989956426023237e-01
21, 6.746697185177710e+00, 5.352202629500000e-08, 1.760285265517054e-04, 1.744773529886608e-02, 5.118111219643667e-03, 3.794868733617568e+01, 2.961749192397803e-01
22, 5.642930530440520e+00, 5.352202629500000e-08, 1.760329099699317e-04, 1.743141639169126e-02, 5.103048810351705e-03, 3.794777597077386e+01, 2.926778896423173e-01
23, 4.750481074120650e+00, 5.352202629500000e-08, 1.760324896387561e-04, 1.749213560485781e-02, 5.114924838243814e-03, 3.795446839224777e+01, 2.882135649359379e-01
24, 4.028891933275240e+00, 5.352202629500000e-08, 1.759860739803614e-04, 1.754282777246107e-02, 5.045796285158022e-03, 3.794428442309196e+01, 2.829027625870962e-01
25, 3.445451734506840e+00, 5.352202629500000e-08, 1.760195616424618e-04, 1.754668466325705e-02, 4.979904920210587e-03, 3.795262842538236e+01, 2.781742033621949e-01
26, 2.973711728635770e+00, 5.352202629500000e-08, 1.758650486727829e-04, 1.771149465716209e-02, 4.938153738354803e-03, 3.793683083171199e+01, 2.764126311911809e-01
27, 2.592286805209170e+00, 5.352202629500000e-08, 1.758562008810449e-04, 1.760787638478850e-02, 4.143847754727316e-03, 3.792619815712667e+01, 2.796015209649441e-01
28, 2.283886053947150e+00, 5.352202629500000e-08, 1.765165526430976e-04, 1.566112431940718e-02, 3.661915430493683e-03, 3.789032245244392e+01, 2.751426389112225e-01
29, 2.034528926141940e+00, 5.352202629500000e-08, 1.761148295590373e-04, 1.476158687116311e-02, 6.856353108819184e-03, 3.778748749959666e+01, 2.464722049937205e-01
30, 1.832911462718730e+00, 5.352202629500000e-08, 1.753919889270947e-04, 1.778978118249653e-02, 9.219652488323727e-03, 3.797629733497233e+01, 2.357902150544437e-01
31, 1.669893858549960e+00, 5.352202629500000e-08, 1.737360815751015e-04, 2.086699649025194e-02, 7.979452110453868e-03, 3.787457710965690e+01, 2.604921736257351e-01
32, 1.538086133079550e+00, 5.352202629500000e-08, 1.731230287397976e-04, 2.176943810661388e-02, 3.734814022749841e-03, 3.786988417721545e+01, 3.547534584685609e-01
33, 1.431513124708660e+00, 5.352202629500000e-08, 1.752980649728586e-04, 1.603117293747170e-02, -2.275178478003700e-03, 3.799863719051102e+01, 4.568093702175837e-01
34, 1.345343622331700e+00, 5.352202629500000e-08, 1.773656047497633e-04, 1.039753923028585e-02, -5.758755283539889e-04, 3.799065538839714e+01, 3.817390123100756e-01
35, 1.275671354903060e+00, 5.352202629500000e-08, 1.774667018533931e-04, 1.101816551101303e-02, 4.797404877445718e-03, 3.792969564292289e+01, 2.425811960083372e-01
36, 1.219337910763940e+00, 5.352202629500000e-08, 1.757448778917659e-04, 1.146350828245599e-02, 7.244185243642937e-03, 3.758577383986790e+01, 1.831491754816413e-01
37, 1.173789559236190e+00, 5.352202629500000e-08, 1.739627772864749e-04, 1.186696328520532e-02, 8.812937961419791e-03, 3.723545513203881e+01, 1.626396580610562e-01
38, 1.136961483861060e+00, 5.352202629500000e-08, 1.716883012809387e-04, 1.221715723385930e-02, 9.975973209772586e-03, 3.678417158268184e+01, 1.522807092523002e-01
39, 1.107184179296940e+00, 5.352202629500000e-08, 1.692222162409250e-04, 1.263236054940084e-02, 1.044662783628999e-02, 3.628551970819999e+01, 1.440862577601476e-01
40, 1.083107768621840e+00, 5.352202629500000e-08, 1.666647715148974e-04, 1.286202303936485e-02, 1.012098153871797e-02, 3.574335504628922e+01, 1.356161397252882e-01
41, 1.063640810162010e+00, 5.352202629500000e-08, 1.645305914941114e-04, 1.271575613726985e-02, 9.034474330125572e-03, 3.525800474463288e+01, 1.265356177010038e-01
42, 1.047900819812490e+00, 5.352202629500000e-08, 1.629801154342190e-04, 1.198523187367686e-02, 7.385382367049288e-03, 3.486317790517307e+01, 1.165493374525352e-01
43, 1.035174265907630e+00, 5.352202629500000e-08, 1.621701048346947e-04, 1.069779465418211e-02, 5.522651429470167e-03, 3.460733211803939e+01, 1.048639707164676e-01
44, 1.024884223112370e+00, 5.352202629500000e-08, 1.618714185739333e-04, 9.030808874282068e-03, 3.819598946456929e-03, 3.446438690206318e+01, 9.064893205725506e-02
45, 1.016564219007590e+00, 5.352202629500000e-08, 1.618324823411427e-04, 7.236176159126122e-03, 2.450912015589491e-03, 3.439473818437077e+01, 7.376812046234002e-02
46, 1.009837087771990e+00, 5.352202629500000e-08, 1.618973628100124e-04, 5.362822469905049e-03, 1.430626791801233e-03, 3.436527919522157e+01, 5.458933019908842e-02
47, 1.004397872347220e+00, 5.352202629500000e-08, 1.613195151168576e-04, 3.416709627973877e-03, 6.457232809557775e-04, 3.421255282926867e+01, 3.294318462169456e-02
48, 1.000000000000000e+00, 5.352202629500000e-08, 1.618402830063910e-04, 0.000000000000000e+00, 0.000000000000000e+00, 3.430035920369018e+01, 0.000000000000000e+00
49, 9.957820729228830e-01, -5.967886532841323e-04, 1.627537993200252e-04, 0.000000000000000e+00, 0.000000000000000e+00, 3.456282889950472e+01, 0.000000000000000e+00
50, 9.909241437988340e-01, -1.280289614488857e-03, 1.628244009356174e-04, 0.000000000000000e+00, 0.000000000000000e+00, 3.460629531527179e+01, 0.000000000000000e+00
51, 9.853368952903420e-01, -2.061293361678059e-03, 1.633586688463733e-04, 0.000000000000000e+00, 0.000000000000000e+00, 3.473177579694811e+01, 0.000000000000000e+00
52, 9.789211302792580e-01, -2.951446198418808e-03, 1.638383952409476e-04, 0.000000000000000e+00, 0.000000000000000e+00, 3.483891445924865e+01, 0.000000000000000e+00
53, 9.715675460812661e-01, -3.963073044857662e-03, 1.643902565813152e-04, 0.000000000000000e+00, 0.000000000000000e+00, 3.495910869868912e+01, 0.000000000000000e+00
54, 9.631568360186920e-01, -5.108981458577545e-03, 1.648960506242469e-04, 0.000000000000000e+00, 0.000000000000000e+00, 3.506925996187343e+01, 0.000000000000000e+00
55, 9.535602429161220e-01, -6.402177880090121e-03, 1.654140781745349e-04, 0.000000000000000e+00, 0.000000000000000e+00, 3.518261696184369e+01, 0.000000000000000e+00
56, 9.426407105822270e-01, -7.855481327107042e-03, 1.659039216811199e-04, 0.000000000000000e+00, 0.000000000000000e+00, 3.529084546375484e+01, 0.000000000000000e+00
57, 9.302547962764830e-01, -9.481022247350132e-03, 1.663920101940011e-04, 0.000000000000000e+00, 0.000000000000000e+00, 3.539965520552600e+01, 0.000000000000000e+00
58, 9.162555145009680e-01, -1.128961886009035e-02, 1.668611164431981e-04, 0.000000000000000e+00, 0.000000000000000e+00, 3.550522655477464e+01, 0.000000000000000e+00
59, 9.004962734807360e-01, -1.329003047580013e-02, 1.673263931857478e-04, 0.000000000000000e+00, 0.000000000000000e+00, 3.561061904543276e+01, 0.000000000000000e+00
60, 8.828360320456839e-01, -1.548809659764239e-02, 1.677798281606360e-04, 0.000000000000000e+00, 0.000000000000000e+00, 3.571389427009710e+01, 0.000000000000000e+00
61, 8.631457374960591e-01, -1.788578165295289e-02, 1.682297011588390e-04, 0.000000000000000e+00, 0.000000000000000e+00, 3.581668066849892e+01, 0.000000000000000e+00
62, 8.413159970120960e-01, -2.048015683562499e-02, 1.686690753539514e-04, 0.000000000000000e+00, 0.000000000000000e+00, 3.591741375703950e+01, 0.000000000000000e+00
63, 8.172657826166300e-01, -2.326236201353585e-02, 1.691032528995560e-04, 0.000000000000000e+00, 0.000000000000000e+00, 3.601718554228419e+01, 0.000000000000000e+00
64, 7.909517772165610e-01, -2.621660130830753e-02, 1.695258821037733e-04, 0.000000000000000e+00, 0.000000000000000e+00, 3.611463314378978e+01, 0.000000000000000e+00
65, 7.623777524675190e-01, -2.931923744885270e-02, 1.699413030104730e-04, 0.000000000000000e+00, 0.000000000000000e+00, 3.621062047211412e+01, 0.000000000000000e+00
66, 7.316031585245610e-01, -3.253806414443636e-02, 1.703463016185192e-04, 0.000000000000000e+00, 0.000000000000000e+00, 3.630443081618471e+01, 0.000000000000000e+00
67, 6.987499446352849e-01, -3.583185629664898e-02, 1.707451591674201e-04, 0.000000000000000e+00, 0.000000000000000e+00, 3.639687764033956e+01, 0.000000000000000e+00
68, 6.640065698311099e-01, -3.915032464739417e-02, 1.711362868119116e-04, 0.000000000000000e+00, 0.000000000000000e+00, 3.648759567447273e+01, 0.000000000000000e+00
69, 6.276282525902900e-01, -4.243462858861940e-02, 1.715249141632052e-04, 0.000000000000000e+00, 0.000000000000000e+00, 3.657763865070587e+01, 0.000000000000000e+00
70, 5.899327756923080e-01, -4.561861289428874e-02, 1.719102015794483e-04, 0.000000000000000e+00, 0.000000000000000e+00, 3.666684680601279e+01, 0.000000000000000e+00
71, 5.512916003363530e-01, -4.863090808605761e-02, 1.722978745331655e-04, 0.000000000000000e+00, 0.000000000000000e+00, 3.675644024525849e+01, 0.000000000000000e+00
72, 5.121166001065770e-01, -5.139794887290158e-02, 1.726880815194563e-04, 0.000000000000000e+00, 0.000000000000000e+00, 3.684650606726096e+01, 0.000000000000000e+00
73, 4.728433082391680e-01, -5.384781416072871e-02, 1.730864391272534e-04, 0.000000000000000e+00, 0.000000000000000e+00, 3.693829296848438e+01, 0.000000000000000e+00
74, 4.339120676130220e-01, -5.591460064650605e-02, 1.734942034255376e-04, 0.000000000000000e+00, 0.000000000000000e+00, 3.703213846691771e+01, 0.000000000000000e+00
75, 3.957487779587870e-01, -5.754285488135374e-02, 1.739165031740235e-04, 0.000000000000000e+00, 0.000000000000000e+00, 3.712920666668536e+01, 0.000000000000000e+00
76, 3.587469844042950e-01, -5.869148183384367e-02, 1.743554066410600e-04, 0.000000000000000e+00, 0.000000000000000e+00, 3.722999138937433e+01, 0.000000000000000e+00
77, 3.232528390902350e-01, -5.933656107664884e-02, 1.748145593238665e-04, 0.000000000000000e+00, 0.000000000000000e+00, 3.733532718810079e+01, 0.000000000000000e+00
78, 2.895540445181870e-01, -5.947265120547269e-02, 1.752959405207052e-04, 0.000000000000000e+00, 0.000000000000000e+00, 3.744566289689244e+01, 0.000000000000000e+00
79, 2.578733448481230e-01, -5.911241796041434e-02, 1.758010383602953e-04, 0.000000000000000e+00, 0.000000000000000e+00, 3.756134565691502e+01, 0.000000000000000e+00
80, 2.283665749856950e-01, -5.828472232042683e-02, 1.763312168091497e-04, 0.000000000000000e+00, 0.000000000000000e+00, 3.768266371317887e+01, 0.000000000000000e+00
81, 2.011247989315330e-01, -5.703150512358030e-02, 1.768853537182993e-04, 0.000000000000000e+00, 0.000000000000000e+00, 3.780937540065040e+01, 0.000000000000000e+00
82, 1.761797307773510e-01, -5.540399685008031e-02, 1.774638936316933e-04, 0.000000000000000e+00, 0.000000000000000e+00, 3.794154946563604e+01, 0.000000000000000e+00
83, 1.535114573767690e-01, -5.345875993105773e-02, 1.780631871380367e-04, 0.000000000000000e+00, 0.000000000000000e+00, 3.807837872733648e+01, 0.000000000000000e+00
84, 1.330574640378200e-01, -5.125402533974487e-02, 1.786817007410090e-04, 0.000000000000000e+00, 0.000000000000000e+00, 3.821949091869182e+01, 0.000000000000000e+00
85, 1.147220644565820e-01, -4.884662296676224e-02, 1.793143415981122e-04, 0.000000000000000e+00, 0.000000000000000e+00, 3.836375840049112e+01, 0.000000000000000e+00
86, 9.838551560343448e-02, -4.628967359474944e-02, 1.799560565598651e-04, 0.000000000000000e+00, 0.000000000000000e+00, 3.851004751650481e+01, 0.000000000000000e+00
87, 8.391230598462590e-02, -4.363106518129783e-02, 1.805997662978718e-04, 0.000000000000000e+00, 0.000000000000000e+00, 3.865678437846761e+01, 0.000000000000000e+00
88, 7.115831019240228e-02, -4.091264364521334e-02, 1.812373455325168e-04, 0.000000000000000e+00, 0.000000000000000e+00, 3.880214712255641e+01, 0.000000000000000e+00
89, 5.997667081241873e-02, -3.816999333835450e-02, 1.818574503662274e-04, 0.000000000000000e+00, 0.000000000000000e+00, 3.894359375909573e+01, 0.000000000000000e+00
90, 5.022241269090757e-02, -3.543266689255811e-02, 1.824472743661769e-04, 0.000000000000000e+00, 0.000000000000000e+00, 3.907822322475758e+01, 0.000000000000000e+00
91, 4.175587666437301e-02, -3.272472343659386e-02, 1.829903081923248e-04, 0.000000000000000e+00, 0.000000000000000e+00, 3.920228414833950e+01, 0.000000000000000e+00
92, 3.444508613221498e-02, -3.006547322461565e-02, 1.834665820229687e-04, 0.000000000000000e+00, 0.000000000000000e+00, 3.931120837992173e+01, 0.000000000000000e+00
93, 2.816723852735188e-02, -2.747032780714164e-02, 1.838516175208066e-04, 0.000000000000000e+00, 0.000000000000000e+00, 3.939938016977054e+01, 0.000000000000000e+00
94, 2.280943840223927e-02, -2.495170224279449e-02, 1.841169104645755e-04, 0.000000000000000e+00, 0.000000000000000e+00, 3.946022961060329e+01, 0.000000000000000e+00
95, 1.826885694347390e-02, -2.251990184115951e-02, 1.842301408564599e-04, 0.000000000000000e+00, 0.000000000000000e+00, 3.948628071018666e+01, 0.000000000000000e+00
96, 1.445220176924677e-02, -2.018402699144572e-02, 1.841566850478232e-04, 0.000000000000000e+00, 0.000000000000000e+00, 3.946950983998748e+01, 0.000000000000000e+00
97, 1.127516040522520e-02, -1.795262732939143e-02, 1.838622194133347e-04, 0.000000000000000e+00, 0.000000000000000e+00, 3.940197703310663e+01, 0.000000000000000e+00
98, 8.660977828664375e-03, -1.583432528077909e-02, 1.833179863382628e-04, 0.000000000000000e+00, 0.000000000000000e+00, 3.927706127715674e+01, 0.000000000000000e+00
99, 6.539262456987240e-03, -1.383809857154541e-02, 1.825076229557400e-04, 0.000000000000000e+00, 0.000000000000000e+00, 3.909105888992416e+01, 0.000000000000000e+00
100, 4.844550253733529e-03, -1.197282395717829e-02, 1.814356411795895e-04, 0.000000000000000e+00, 0.000000000000000e+00, 3.884512728207913e+01, 0.000000000000000e+00
101, 3.515319859016383e-03, -1.024671366603845e-02, 1.801325712921536e-04, 0.000000000000000e+00, 0.000000000000000e+00, 3.854644308390642e+01, 0.000000000000000e+00
102, 2.493434235242850e-03, -8.666019672232862e-03, 1.786549502971941e-04, 0.000000000000000e+00, 0.000000000000000e+00, 3.820813058343445e+01, 0.000000000000000e+00
103, 1.724623063799526e-03, -7.234076671312168e-03, 1.770786187203053e-04, 0.000000000000000e+00, 0.000000000000000e+00, 3.784764165536662e+01, 0.000000000000000e+00
104, 1.159193085740397e-03, -5.950300022223502e-03, 1.754852696332064e-04, 0.000000000000000e+00, 0.000000000000000e+00, 3.748364024351270e+01, 0.000000000000000e+00
105, 7.531893324873004e-04, -4.810177416320721e-03, 1.739430958471250e-04, 0.000000000000000e+00, 0.000000000000000e+00, 3.713167196130108e+01, 0.000000000000000e+00
106, 4.691284473891598e-04, -3.805771251873249e-03, 1.725000173069516e-04, 0.000000000000000e+00, 0.000000000000000e+00, 3.680263194148979e+01, 0.000000000000000e+00
107, 2.762360161117116e-04, -2.926719015761365e-03, 1.711830692283771e-04, 0.000000000000000e+00, 0.000000000000000e+00, 3.650265800738711e+01, 0.000000000000000e+00
108, 1.500786146402364e-04, -2.161299885350869e-03, 1.700029522674988e-04, 0.000000000000000e+00, 0.000000000000000e+00, 3.623417433145246e+01, 0.000000000000000e+00
109, 7.180327325045228e-05, -1.497376923399532e-03, 1.689577385113732e-04, 0.000000000000000e+00, 0.000000000000000e+00, 3.599676331262986e+01, 0.000000000000000e+00
110, 2.721275945542452e-05, -9.231024271926752e-04, 1.680525765975758e-04, 0.000000000000000e+00, 0.000000000000000e+00, 3.579142662869354e+01, 0.000000000000000e+00
111, 5.818606343871792e-06, -4.273592490875973e-04, 1.673174553984248e-04, 0.000000000000000e+00, 0.000000000000000e+00, 3.562440146830693e+01, 0.000000000000000e+00
112, 0.000000000000000e+00, 0.000000000000000e+00, 1.665813834085344e-04, 0.000000000000000e+00, 0.000000000000000e+00, 3.545909353845009e+01, 0.000000000000000e+00
113, 5.818606344095651e-06, 4.273592490958099e-04, 1.635790358331464e-04, 0.000000000000000e+00, 0.000000000000000e+00, 3.481296474170899e+01, 0.000000000000000e+00
114, 2.721275945665566e-05, 9.231024272135111e-04, 1.636588726393921e-04, 0.000000000000000e+00, 0.000000000000000e+00, 3.481986616888845e+01, 0.000000000000000e+00
115, 7.180327325368544e-05, 1.497376923433127e-03, 1.646441336743099e-04, 0.000000000000000e+00, 0.000000000000000e+00, 3.501788856904977e+01, 0.000000000000000e+00
116, 1.500786146456709e-04, 2.161299885389794e-03, 1.644601726285262e-04, 0.000000000000000e+00, 0.000000000000000e+00, 3.496604272166452e+01, 0.000000000000000e+00
117, 2.762360161229505e-04, 2.926719015820480e-03, 1.633975529679056e-04, 0.000000000000000e+00, 0.000000000000000e+00, 3.472665498828842e+01, 0.000000000000000e+00
118, 4.691284474090552e-04, 3.805771251953191e-03, 1.621896584588839e-04, 0.000000000000000e+00, 0.000000000000000e+00, 3.445620442481599e+01, 0.000000000000000e+00
119, 7.531893325176259e-04, 4.810177416416397e-03, 1.610214184083275e-04, 0.000000000000000e+00, 0.000000000000000e+00, 3.419469072261071e+01, 0.000000000000000e+00
120, 1.159193085789885e-03, 5.950300022348630e-03, 1.598281340412124e-04, 0.000000000000000e+00, 0.000000000000000e+00, 3.392911063577937e+01, 0.000000000000000e+00
