"PointID","x","y","Density","Momentum_x","Momentum_y","Energy","Nu_Tilde"
0, 5.010000078023450e+02, 5.352202629500000e-08, 1.760755646966496e-04, 1.733402088824358e-02, 5.299542016459072e-03, 3.795639618634581e+01, 3.088328737918821e-01
1, 4.052709646366250e+02, 5.352202629500000e-08, 1.760755647893201e-04, 1.733402091495386e-02, 5.299542059566715e-03, 3.795639621105011e+01, 3.088323653147398e-01
2, 3.278693397908290e+02, 5.352202629500000e-08, 1.760755661419025e-04, 1.733402147472923e-02, 5.299543082647232e-03, 3.795639664369421e+01, 3.088313953054188e-01
3, 2.652863312215480e+02, 5.352202629500000e-08, 1.760755773108943e-04, 1.733402734840996e-02, 5.299556050747974e-03, 3.795640071238708e+01, 3.088298439340952e-01
4, 2.146849004455700e+02, 5.352202629500000e-08, 1.760756310493141e-04, 1.733406209404962e-02, 5.299655111620832e-03, 3.795642258815267e+01, 3.088273609554014e-01
5, 1.737711627536290e+02, 5.352202629500000e-08, 1.760757609102815e-04, 1.733418037094300e-02, 5.300132990008300e-03, 3.795648639753137e+01, 3.088232257984424e-01
6, 1.406903998926780e+02, 5.352202629500000e-08, 1.760757956482745e-04, 1.733440650709915e-02, 5.301594275247109e-03, 3.795656185960691e+01, 3.088154950522174e-01
7, 1.139429812211730e+02, 5.352202629500000e-08, 1.760753105951529e-04, 1.733473434680874e-02, 5.304454954129624e-03, 3.795653821044107e+01, 3.087999603990790e-01
8, 9.231638184086459e+01, 5.352202629500000e-08, 1.760746579623844e-04, 1.733580005740841e-02, 5.308586231455425e-03, 3.795658346634070e+01, 3.087697281780341e-01
9, 7.483021592330550e+01, 5.352202629500000e-08, 1.760748209932087e-04, 1.733982784604915e-02, 5.314990057576053e-03, 3.795722266859714e+01, 3.087099116184883e-01
10, 6.069179345940150e+01, 5.352202629500000e-08, 1.760743284991480e-04, 1.735105435191064e-02, 5.324682376665905e-03, 3.795847472699566e+01, 3.085881147773939e-01
11, 4.926018571243980e+01, 5.352202629500000e-08, 1.760725979396726e-04, 1.737565888352352e-02, 5.330243588228929e-03, 3.796059497835430e+01, 3.083636558352366e-01
12, 4.001717037504760e+01, 5.352202629500000e-08, 1.760728147792682e-04, 1.740982282098973e-02, 5.314355945855785e-03, 3.796355384017323e+01, 3.079984804839160e-01
13, 3.254373930407910e+01, 5.352202629500000e-08, 1.760738392340856e-04, 1.742425465558654e-02, 5.270494715745614e-03, 3.796391634807199e+01, 3.074975805063297e-01
14, 2.650110387248250e+01, 5.352202629500000e-08, 1.760720674164870e-04, 1.740263856790623e-02, 5.234804114563144e-03, 3.796021272126198e+01, 3.068523052115989e-01
15, 2.161533686500620e+01, 5.352202629500000e-08, 1.760692134642456e-04, 1.738533731252708e-02, 5.240169833000954e-03, 3.795788867862139e+01, 3.061284173956559e-01
16, 1.766495469789320e+01, 5.352202629500000e-08, 1.760685377814486e-04, 1.739491342639421e-02, 5.242149288862709e-03, 3.795864126606175e+01, 3.052651891578778e-01
17, 1.447087703467990e+01, 5.352202629500000e-08, 1.760693249419776e-04, 1.740040826939335e-02, 5.227220829562891e-03, 3.795872618555308e+01, 3.042138654933719e-01
18, 1.188830864330480e+01, 5.352202629500000e-08, 1.760583331940142e-04, 1.741872590633193e-02, 5.225313268916358e-03, 3.795776428996166e+01, 3.028825439053504e-01
19, 9.800175479560719e+00, 5.352202629500000e-08, 1.760598842872997e-04, 1.744154434920374e-02, 5.188402586085223e-03, 3.795893356546355e+01, 3.011889263460737e-01
20, 8.111817438747661e+00, 5.352202629500000e-08, 1.760445257523425e-04, 1.742601346737317e-02, 5.145428837456727e-03, 3.795210841069418e+01, 2.989868077752315e-01
21, 6.746697185177710e+00, 5.352202629500000e-08, 1.760632632721270e-04, 1.743162577466575e-02, 5.143411729467974e-03, 3.795785742906730e+01, 2.962825999570218e-01
22, 5.642930530440520e+00, 5.352202629500000e-08, 1.760594259054740e-04, 1.746813967141878e-02, 5.143176931964109e-03, 3.796036311319560e+01, 2.927579587396331e-01
23, 4.750481074120650e+00, 5.352202629500000e-08, 1.760257808882199e-04, 1.746567464422925e-02, 5.108802749515154e-03, 3.794899967708290e+01, 2.883149671465534e-01
24, 4.028891933275240e+00, 5.352202629500000e-08, 1.759867242361885e-04, 1.748545463724387e-02, 5.119293321077441e-03, 3.794125945982385e+01, 2.831600709160100e-01
25, 3.445451734506840e+00, 5.352202629500000e-08, 1.759074428059664e-04, 1.759722447769350e-02, 5.071000739201891e-03, 3.793210395243756e+01, 2.772162600314668e-01
26, 2.973711728635770e+00, 5.352202629500000e-08, 1.759868467872920e-04, 1.744650571325822e-02, 4.764766681160121e-03, 3.793494576227740e+01, 2.716277017846559e-01
27, 2.592286805209170e+00, 5.352202629500000e-08, 1.758977403101812e-04, 1.700858248986501e-02, 5.211274934082619e-03, 3.787465939549874e+01, 2.694302450849388e-01
28, 2.283886053947150e+00, 5.352202629500000e-08, 1.753734560690839e-04, 1.806485623652700e-02, 6.243454129750933e-03, 3.791601771625898e+01, 2.882786699749459e-01
29, 2.034528926141940e+00, 5.352202629500000e-08, 1.742045896306458e-04, 1.919348857888509e-02, 3.852121014792729e-03, 3.788380478071048e+01, 3.594059904502596e-01
30, 1.832911462718730e+00, 5.352202629500000e-08, 1.750504342103790e-04, 1.429412879522622e-02, -1.670320263967656e-03, 3.785122858472874e+01, 4.536129638888196e-01
31, 1.669893858549960e+00, 5.352202629500000e-08, 1.758423540636558e-04, 8.628334558823241e-03, 1.130494806367902e-03, 3.739440436084499e+01, 3.778937043220731e-01
32, 1.538086133079550e+00, 5.352202629500000e-08, 1.764334182226127e-04, 1.088881958433764e-02, 8.565772980252899e-03, 3.759149174958711e+01, 2.294672835712327e-01
33, 1.431513124708660e+00, 5.352202629500000e-08, 1.752765205834827e-04, 1.357619621083152e-02, 1.083705939152534e-02, 3.762059516178099e+01, 1.933054765535077e-01
34, 1.345343622331700e+00, 5.352202629500000e-08, 1.731436266365672e-04, 1.581049890233208e-02, 1.205519234269848e-02, 3.733173948275693e+01, 1.756734386832633e-01
35, 1.275671354903060e+00, 5.352202629500000e-08, 1.714363037726211e-04, 1.851627171333337e-02, 1.255274871882927e-02, 3.715773574306319e+01, 1.623812199747222e-01
36, 1.219337910763940e+00, 5.352202629500000e-08, 1.691925688890491e-04, 2.038653984798105e-02, 1.131650824775762e-02, 3.680873778097604e+01, 1.548951152235146e-01
37, 1.173789559236190e+00, 5.352202629500000e-08, 1.681101397269532e-04, 2.043893298607625e-02, 8.598964582430266e-03, 3.657534145815384e+01, 1.540539358635326e-01
38, 1.136961483861060e+00, 5.352202629500000e-08, 1.673120732642598e-04, 1.832960061920580e-02, 5.725116536483397e-03, 3.626659696949675e+01, 1.543031018603189e-01
39, 1.107184179296940e+00, 5.352202629500000e-08, 1.675231807298266e-04, 1.563235865309353e-02, 3.552001824854310e-03, 3.615739202748554e+01, 1.489301091069224e-01
40, 1.083107768621840e+00, 5.352202629500000e-08, 1.677923545652276e-04, 1.315408556303363e-02, 2.208671908870562e-03, 3.609523876547793e+01, 1.365930161857194e-01
41, 1.063640810162010e+00, 5.352202629500000e-08, 1.682324791479640e-04, 1.108991876416296e-02, 1.345677233670281e-03, 3.611162832799806e+01, 1.208379810864306e-01
42, 1.047900819812490e+00, 5.352202629500000e-08, 1.684426471290603e-04, 9.253969974225059e-03, 7.936220253540750e-04, 3.609835249528343e+01, 1.043229269721612e-01
43, 1.035174265907630e+00, 5.352202629500000e-08, 1.686273758927903e-04, 7.660515823291331e-03, 4.412425560479870e-04, 3.609682681232207e+01, 8.832959046282221e-02
44, 1.024884223112370e+00, 5.352202629500000e-08, 1.686503241705427e-04, 6.216247389563763e-03, 2.169244889752599e-04, 3.607077933833663e+01, 7.303840036878463e-02
45, 1.016564219007590e+00, 5.352202629500000e-08, 1.685973124019206e-04, 4.899728356764869e-03, 7.386747959220683e-05, 3.603635693072425e+01, 5.817322110734289e-02
46, 1.009837087771990e+00, 5.352202629500000e-08, 1.684691229680236e-04, 3.596965479194930e-03, -1.577590449511688e-05, 3.599056469035828e+01, 4.316442733649658e-02
47, 1.004397872347220e+00, 5.352202629500000e-08, 1.679136253819008e-04, 2.290531559069268e-03, -4.060684608055259e-05, 3.585744165058531e+01, 2.695690374954552e-02
48, 1.000000000000000e+00, 5.352202629500000e-08, 1.679966559119559e-04, 0.000000000000000e+00, 0.000000000000000e+00, 3.586265235639060e+01, 0.000000000000000e+00
49, 9.957820729228830e-01, -5.967886532841323e-04, 1.684672895549019e-04, 0.000000000000000e+00, 0.000000000000000e+00, 3.600326902864739e+01, 0.000000000000000e+00
50, 9.909241437988340e-01, -1.280289614488857e-03, 1.682932127364229e-04, 0.000000000000000e+00, 0.000000000000000e+00, 3.598172458758759e+01, 0.000000000000000e+00
51, 9.853368952903420e-01, -2.061293361678059e-03, 1.684414113262605e-04, 0.000000000000000e+00, 0.000000000000000e+00, 3.601889166217961e+01, 0.000000000000000e+00
52, 9.789211302792580e-01, -2.951446198418808e-03, 1.684949924232462e-04, 0.000000000000000e+00, 0.000000000000000e+00, 3.603090258839778e+01, 0.000000000000000e+00
53, 9.715675460812661e-01, -3.963073044857662e-03, 1.686354231275378e-04, 0.000000000000000e+00, 0.000000000000000e+00, 3.605888614307403e+01, 0.000000000000000e+00
54, 9.631568360186920e-01, -5.108981458577545e-03, 1.687404139449093e-04, 0.000000000000000e+00, 0.000000000000000e+00, 3.607806906392922e+01, 0.000000000000000e+00
55, 9.535602429161220e-01, -6.402177880090121e-03, 1.688877034845791e-04, 0.000000000000000e+00, 0.000000000000000e+00, 3.610566203053124e+01, 0.000000000000000e+00
56, 9.426407105822270e-01, -7.855481327107042e-03, 1.690237787603406e-04, 0.000000000000000e+00, 0.000000000000000e+00, 3.613048827206870e+01, 0.000000000000000e+00
57, 9.302547962764830e-01, -9.481022247350132e-03, 1.691914531296382e-04, 0.000000000000000e+00, 0.000000000000000e+00, 3.616185537315499e+01, 0.000000000000000e+00
58, 9.162555145009680e-01, -1.128961886009035e-02, 1.693584854565459e-04, 0.000000000000000e+00, 0.000000000000000e+00, 3.619294287814545e+01, 0.000000000000000e+00
59, 9.004962734807360e-01, -1.329003047580013e-02, 1.695518338167337e-04, 0.000000000000000e+00, 0.000000000000000e+00, 3.622964500970379e+01, 0.000000000000000e+00
60, 8.828360320456839e-01, -1.548809659764239e-02, 1.697479203483721e-04, 0.000000000000000e+00, 0.000000000000000e+00, 3.626696197125840e+01, 0.000000000000000e+00
61, 8.631457374960591e-01, -1.788578165295289e-02, 1.699653673477931e-04, 0.000000000000000e+00, 0.000000000000000e+00, 3.630900935638851e+01, 0.000000000000000e+00
62, 8.413159970120960e-01, -2.048015683562499e-02, 1.701848994842118e-04, 0.000000000000000e+00, 0.000000000000000e+00, 3.635168000388337e+01, 0.000000000000000e+00
63, 8.172657826166300e-01, -2.326236201353585e-02, 1.704216656618564e-04, 0.000000000000000e+00, 0.000000000000000e+00, 3.639836153481437e+01, 0.000000000000000e+00
64, 7.909517772165610e-01, -2.621660130830753e-02, 1.706598536109727e-04, 0.000000000000000e+00, 0.000000000000000e+00, 3.644566793031863e+01, 0.000000000000000e+00
65, 7.623777524675190e-01, -2.931923744885270e-02, 1.709113695378397e-04, 0.000000000000000e+00, 0.000000000000000e+00, 3.649629534176294e+01, 0.000000000000000e+00
66, 7.316031585245610e-01, -3.253806414443636e-02, 1.711647355698215e-04, 0.000000000000000e+00, 0.000000000000000e+00, 3.654772980923111e+01, 0.000000000000000e+00
67, 6.987499446352849e-01, -3.583185629664898e-02, 1.714291945386411e-04, 0.000000000000000e+00, 0.000000000000000e+00, 3.660208624856040e+01, 0.000000000000000e+00
68, 6.640065698311099e-01, -3.915032464739417e-02, 1.716962809336753e-04, 0.000000000000000e+00, 0.000000000000000e+00, 3.665744720022010e+01, 0.000000000000000e+00
69, 6.276282525902900e-01, -4.243462858861940e-02, 1.719741159781080e-04, 0.000000000000000e+00, 0.000000000000000e+00, 3.671569260954049e+01, 0.000000000000000e+00
70, 5.899327756923080e-01, -4.561861289428874e-02, 1.722570999237791e-04, 0.000000000000000e+00, 0.000000000000000e+00, 3.677550034874499e+01, 0.000000000000000e+00
71, 5.512916003363530e-01, -4.863090808605761e-02, 1.725522274110148e-04, 0.000000000000000e+00, 0.000000000000000e+00, 3.683851984705012e+01, 0.000000000000000e+00
72, 5.121166001065770e-01, -5.139794887290158e-02, 1.728571185662647e-04, 0.000000000000000e+00, 0.000000000000000e+00, 3.690412775253760e+01, 0.000000000000000e+00
73, 4.728433082391680e-01, -5.384781416072871e-02, 1.731776293485553e-04, 0.000000000000000e+00, 0.000000000000000e+00, 3.697373419515490e+01, 0.000000000000000e+00
74, 4.339120676130220e-01, -5.591460064650605e-02, 1.735143925602904e-04, 0.000000000000000e+00, 0.000000000000000e+00, 3.704737482915350e+01, 0.000000000000000e+00
75, 3.957487779587870e-01, -5.754285488135374e-02, 1.738719705570358e-04, 0.000000000000000e+00, 0.000000000000000e+00, 3.712615667820113e+01, 0.000000000000000e+00
76, 3.587469844042950e-01, -5.869148183384367e-02, 1.742531040605475e-04, 0.000000000000000e+00, 0.000000000000000e+00, 3.721057467944610e+01, 0.000000000000000e+00
77, 3.232528390902350e-01, -5.933656107664884e-02, 1.746604510170204e-04, 0.000000000000000e+00, 0.000000000000000e+00, 3.730127710986589e+01, 0.000000000000000e+00
78, 2.895540445181870e-01, -5.947265120547269e-02, 1.750973020740416e-04, 0.000000000000000e+00, 0.000000000000000e+00, 3.739887170228341e+01, 0.000000000000000e+00
79, 2.578733448481230e-01, -5.911241796041434e-02, 1.755640419166757e-04, 0.000000000000000e+00, 0.000000000000000e+00, 3.750346531990097e+01, 0.000000000000000e+00
80, 2.283665749856950e-01, -5.828472232042683e-02, 1.760630804967544e-04, 0.000000000000000e+00, 0.000000000000000e+00, 3.761548496900573e+01, 0.000000000000000e+00
81, 2.011247989315330e-01, -5.703150512358030e-02, 1.765919168408401e-04, 0.000000000000000e+00, 0.000000000000000e+00, 3.773439232571893e+01, 0.000000000000000e+00
82, 1.761797307773510e-01, -5.540399685008031e-02, 1.771518282471038e-04, 0.000000000000000e+00, 0.000000000000000e+00, 3.786039540528328e+01, 0.000000000000000e+00
83, 1.535114573767690e-01, -5.345875993105773e-02, 1.777379131956367e-04, 0.000000000000000e+00, 0.000000000000000e+00, 3.799243372876500e+01, 0.000000000000000e+00
84, 1.330574640378200e-01, -5.125402533974487e-02, 1.783492062592563e-04, 0.000000000000000e+00, 0.000000000000000e+00, 3.813024749763049e+01, 0.000000000000000e+00
85, 1.147220644565820e-01, -4.884662296676224e-02, 1.789798705396553e-04, 0.000000000000000e+00, 0.000000000000000e+00, 3.827256014963377e+01, 0.000000000000000e+00
86, 9.838551560343448e-02, -4.628967359474944e-02, 1.796258245589318e-04, 0.000000000000000e+00, 0.000000000000000e+00, 3.841843994579441e+01, 0.000000000000000e+00
87, 8.391230598462590e-02, -4.363106518129783e-02, 1.802798314224871e-04, 0.000000000000000e+00, 0.000000000000000e+00, 3.856627976379225e+01, 0.000000000000000e+00
88, 7.115831019240228e-02, -4.091264364521334e-02, 1.809350073965909e-04, 0.000000000000000e+00, 0.000000000000000e+00, 3.871451579445721e+01, 0.000000000000000e+00
89, 5.997667081241873e-02, -3.816999333835450e-02, 1.815809967356476e-04, 0.000000000000000e+00, 0.000000000000000e+00, 3.886081870158716e+01, 0.000000000000000e+00
90, 5.022241269090757e-02, -3.543266689255811e-02, 1.822062412781987e-04, 0.000000000000000e+00, 0.000000000000000e+00, 3.900255947248587e+01, 0.000000000000000e+00
91, 4.175587666437301e-02, -3.272472343659386e-02, 1.827957628067525e-04, 0.000000000000000e+00, 0.000000000000000e+00, 3.913633061968494e+01, 0.000000000000000e+00
92, 3.444508613221498e-02, -3.006547322461565e-02, 1.833316189548657e-04, 0.000000000000000e+00, 0.000000000000000e+00, 3.925802341854736e+01, 0.000000000000000e+00
93, 2.816723852735188e-02, -2.747032780714164e-02, 1.837908014871941e-04, 0.000000000000000e+00, 0.000000000000000e+00, 3.936236616308811e+01, 0.000000000000000e+00
94, 2.280943840223927e-02, -2.495170224279449e-02, 1.841470164899933e-04, 0.000000000000000e+00, 0.000000000000000e+00, 3.944329581756397e+01, 0.000000000000000e+00
95, 1.826885694347390e-02, -2.251990184115951e-02, 1.843692099248218e-04, 0.000000000000000e+00, 0.000000000000000e+00, 3.949364403314322e+01, 0.000000000000000e+00
96, 1.445220176924677e-02, -2.018402699144572e-02, 1.844235479997081e-04, 0.000000000000000e+00, 0.000000000000000e+00, 3.950558528343313e+01, 0.000000000000000e+00
97, 1.127516040522520e-02, -1.795262732939143e-02, 1.842759648504476e-04, 0.000000000000000e+00, 0.000000000000000e+00, 3.947124381951537e+01, 0.000000000000000e+00
98, 8.660977828664375e-03, -1.583432528077909e-02, 1.838966531183518e-04, 0.000000000000000e+00, 0.000000000000000e+00, 3.938375524015675e+01, 0.000000000000000e+00
99, 6.539262456987240e-03, -1.383809857154541e-02, 1.832668132305248e-04, 0.000000000000000e+00, 0.000000000000000e+00, 3.923884522014938e+01, 0.000000000000000e+00
100, 4.844550253733529e-03, -1.197282395717829e-02, 1.823867954229347e-04, 0.000000000000000e+00, 0.000000000000000e+00, 3.903670130124519e+01, 0.000000000000000e+00
101, 3.515319859016383e-03, -1.024671366603845e-02, 1.812815260590875e-04, 0.000000000000000e+00, 0.000000000000000e+00, 3.878319880298555e+01, 0.000000000000000e+00
102, 2.493434235242850e-03, -8.666019672232862e-03, 1.800003870755036e-04, 0.000000000000000e+00, 0.000000000000000e+00, 3.848981974132020e+01, 0.000000000000000e+00
103, 1.724623063799526e-03, -7.234076671312168e-03, 1.786115045729495e-04, 0.000000000000000e+00, 0.000000000000000e+00, 3.817226031890529e+01, 0.000000000000000e+00
104, 1.159193085740397e-03, -5.950300022223502e-03, 1.771889591814795e-04, 0.000000000000000e+00, 0.000000000000000e+00, 3.784746617386229e+01, 0.000000000000000e+00
105, 7.531893324873004e-04, -4.810177416320721e-03, 1.757997718068067e-04, 0.000000000000000e+00, 0.000000000000000e+00, 3.753065543527400e+01, 0.000000000000000e+00
106, 4.691284473891598e-04, -3.805771251873249e-03, 1.744941481675708e-04, 0.000000000000000e+00, 0.000000000000000e+00, 3.723314035542787e+01, 0.000000000000000e+00
107, 2.762360161117116e-04, -2.926719015761365e-03, 1.733025401752080e-04, 0.000000000000000e+00, 0.000000000000000e+00, 3.696171731961273e+01, 0.000000000000000e+00
108, 1.500786146402364e-04, -2.161299885350869e-03, 1.722385976622124e-04, 0.000000000000000e+00, 0.000000000000000e+00, 3.671937017699487e+01, 0.000000000000000e+00
109, 7.180327325045228e-05, -1.497376923399532e-03, 1.713030933020453e-04, 0.000000000000000e+00, 0.000000000000000e+00, 3.650618921677694e+01, 0.000000000000000e+00
110, 2.721275945542452e-05, -9.231024271926752e-04, 1.704916057941207e-04, 0.000000000000000e+00, 0.000000000000000e+00, 3.632107075803312e+01, 0.000000000000000e+00
111, 5.818606343871792e-06, -4.273592490875973e-04, 1.697880253836356e-04, 0.000000000000000e+00, 0.000000000000000e+00, 3.616036306032635e+01, 0.000000000000000e+00
112, 0.000000000000000e+00, 0.000000000000000e+00, 1.691239229558506e-04, 0.000000000000000e+00, 0.000000000000000e+00, 3.600916647710493e+01, 0.000000000000000e+00
113, 5.818606344095651e-06, 4.273592490958099e-04, 1.685332225987609e-04, 0.000000000000000e+00, 0.000000000000000e+00, 3.587204252758875e+01, 0.000000000000000e+00
114, 2.721275945665566e-05, 9.231024272135111e-04, 1.678025665548611e-04, 0.000000000000000e+00, 0.000000000000000e+00, 3.570778105538714e+01, 0.000000000000000e+00
115, 7.180327325368544e-05, 1.497376923433127e-03, 1.669522911107487e-04, 0.000000000000000e+00, 0.000000000000000e+00, 3.551738575669643e+01, 0.000000000000000e+00
116, 1.500786146456709e-04, 2.161299885389794e-03, 1.660203420624186e-04, 0.000000000000000e+00, 0.000000000000000e+00, 3.530858197580492e+01, 0.000000000000000e+00
117, 2.762360161229505e-04, 2.926719015820480e-03, 1.650076434146297e-04, 0.000000000000000e+00, 0.000000000000000e+00, 3.508158686615014e+01, 0.000000000000000e+00
118, 4.691284474090552e-04, 3.805771251953191e-03, 1.639105523444189e-04, 0.000000000000000e+00, 0.000000000000000e+00, 3.483583947042001e+01, 0.000000000000000e+00
119, 7.531893325176259e-04, 4.810177416416397e-03, 1.627473647770568e-04, 0.000000000000000e+00, 0.000000000000000e+00, 3.457563476388493e+01, 0.000000000000000e+00
120, 1.159193085789885e-03, 5.950300022348630e-03, 1.615666209437825e-04, 0.000000000000000e+00, 0.000000000000000e+00, 3.431188840734468e+01, 0.000000000000000e+00
